Data from mixed_try1_USB4F045381__7__00155.txt Node

Date: Thu Apr 03 20:07:54 EDT 2025
User: mmckonesweet
Spectrometer: USB4F04538
Trigger mode: 4
Integration Time (sec): 2.700000E-3
Scans to average: 1
Electric dark correction enabled: true
Nonlinearity correction enabled: true
Boxcar width: 0
XAxis mode: Wavelengths
Number of Pixels in Spectrum: 3648
>>>>>Begin Spectral Data<<<<<
345.52	-44.60065
345.736	-44.60065
345.952	-44.60065
346.168	-19.31659
346.384	18.61609
346.6	3.86356
346.816	-4.56592
347.032	-27.74501
347.248	3.86356
347.464	77.63768
347.68	5.97099
347.896	8.07845
348.112	-48.81431
348.328	46.01671
348.544	-88.83902
348.76	-21.42373
348.975	46.01671
349.191	12.29343
349.407	-57.24133
349.623	-23.53085
349.839	-21.42373
350.055	-40.38689
350.27	33.36978
350.486	3.86356
350.702	1.75615
350.918	-15.10224
351.133	29.15432
351.349	-69.8811
351.565	-23.53085
351.781	1.75615
351.996	-15.10224
352.212	-6.67324
352.428	-2.45859
352.644	10.18593
352.859	54.44846
353.075	18.61609
353.291	105.04662
353.506	-2.45859
353.722	-15.10224
353.938	31.26204
354.153	1.75615
354.369	35.47754
354.584	22.83131
354.8	20.72369
355.016	18.61609
355.231	27.04663
355.447	-23.53085
355.662	-40.38689
355.878	29.15432
356.093	35.47754
356.309	50.23254
356.524	29.15432
356.74	-36.17303
356.955	52.34049
357.171	12.29343
357.386	-23.53085
357.602	3.86356
357.817	37.58533
358.033	-67.77453
358.248	29.15432
358.464	1.75615
358.679	-8.78052
358.895	-4.56592
359.11	-29.85205
359.325	35.47754
359.541	52.34049
359.756	52.34049
359.972	-15.10224
360.187	5.97099
360.402	-42.49378
360.618	10.18593
360.833	24.93896
361.048	24.93896
361.264	5.97099
361.479	43.90883
361.694	-4.56592
361.909	46.01671
362.125	-63.56133
362.34	10.18593
362.555	-40.38689
362.77	-78.3071
362.986	-2.45859
363.201	-15.10224
363.416	14.40096
363.631	10.18593
363.847	-2.45859
364.062	-15.10224
364.277	14.40096
364.492	-10.88778
364.707	27.04663
364.922	-46.70749
365.138	-59.34802
365.353	-10.88778
365.568	-21.42373
365.783	54.44846
365.998	-23.53085
366.213	43.90883
366.428	-50.9211
366.643	10.18593
366.858	-15.10224
367.073	41.80097
367.288	22.83131
367.503	14.40096
367.718	10.18593
367.933	35.47754
368.148	-31.95906
368.363	60.77252
368.578	-21.42373
368.793	22.83131
369.008	-19.31659
369.223	-23.53085
369.438	-17.20943
369.653	35.47754
369.868	1.75615
370.083	29.15432
370.298	-2.45859
370.513	-4.56592
370.728	-4.56592
370.943	46.01671
371.157	3.86356
371.372	-2.45859
371.587	48.12461
371.802	3.86356
372.017	-6.67324
372.232	29.15432
372.446	-48.81431
372.661	-46.70749
372.876	10.18593
373.091	-15.10224
373.306	-4.56592
373.52	-6.67324
373.735	22.83131
373.95	-40.38689
374.165	-21.42373
374.379	-2.45859
374.594	-31.95906
374.809	50.23254
375.023	-0.35123
375.238	-6.67324
375.453	-25.63794
375.667	12.29343
375.882	35.47754
376.097	12.29343
376.311	27.04663
376.526	35.47754
376.741	-29.85205
376.955	5.97099
377.17	5.97099
377.384	3.86356
377.599	39.69314
377.813	27.04663
378.028	39.69314
378.242	-80.41353
378.457	37.58533
378.672	-4.56592
378.886	-67.77453
379.101	-36.17303
379.315	31.26204
379.53	-12.99502
379.744	-31.95906
379.958	39.69314
380.173	18.61609
380.387	3.86356
380.602	10.18593
380.816	-31.95906
381.031	-2.45859
381.245	-25.63794
381.459	-15.10224
381.674	8.07845
381.888	27.04663
382.103	29.15432
382.317	-95.15786
382.531	60.77252
382.746	-6.67324
382.96	-55.13461
383.174	-10.88778
383.388	46.01671
383.603	-15.10224
383.817	10.18593
384.031	-53.02787
384.246	-31.95906
384.46	46.01671
384.674	77.63768
384.888	10.18593
385.103	-65.66794
385.317	10.18593
385.531	-42.49378
385.745	3.86356
385.959	10.18593
386.174	-21.42373
386.388	29.15432
386.602	5.97099
386.816	10.18593
387.03	33.36978
387.244	3.86356
387.458	-27.74501
387.672	-4.56592
387.887	18.61609
388.101	-29.85205
388.315	1.75615
388.529	-42.49378
388.743	43.90883
388.957	-21.42373
389.171	39.69314
389.385	-57.24133
389.599	43.90883
389.813	22.83131
390.027	16.50851
390.241	1.75615
390.455	48.12461
390.669	-31.95906
390.883	96.6127
391.097	10.18593
391.311	22.83131
391.525	-10.88778
391.738	5.97099
391.952	-31.95906
392.166	14.40096
392.38	-21.42373
392.594	-6.67324
392.808	3.86356
393.022	10.18593
393.236	-6.67324
393.449	71.31307
393.663	24.93896
393.877	-130.96017
394.091	10.18593
394.305	-48.81431
394.518	5.97099
394.732	-19.31659
394.946	22.83131
395.16	5.97099
395.373	37.58533
395.587	-4.56592
395.801	-29.85205
396.015	18.61609
396.228	3.86356
396.442	-46.70749
396.656	8.07845
396.869	16.50851
397.083	-40.38689
397.297	-46.70749
397.51	-10.88778
397.724	-6.67324
397.938	-15.10224
398.151	-48.81431
398.365	-12.99502
398.578	5.97099
398.792	12.29343
399.005	-53.02787
399.219	22.83131
399.433	18.61609
399.646	-29.85205
399.86	-88.83902
400.073	-29.85205
400.287	-137.27742
400.5	18.61609
400.714	-27.74501
400.927	43.90883
401.141	52.34049
401.354	31.26204
401.567	1.75615
401.781	3.86356
401.994	-2.45859
402.208	10.18593
402.421	22.83131
402.635	5.97099
402.848	27.04663
403.061	29.15432
403.275	33.36978
403.488	43.90883
403.701	3.86356
403.915	-48.81431
404.128	-10.88778
404.341	-12.99502
404.555	-31.95906
404.768	-40.38689
404.981	35.47754
405.195	18.61609
405.408	1.75615
405.621	-4.56592
405.834	-19.31659
406.048	1.75615
406.261	-12.99502
406.474	12.29343
406.687	37.58533
406.9	1.75615
407.114	-80.41353
407.327	-15.10224
407.54	27.04663
407.753	-19.31659
407.966	1.75615
408.179	113.4809
408.392	27.04663
408.605	12.29343
408.819	10.18593
409.032	48.12461
409.245	-29.85205
409.458	-38.27997
409.671	-29.85205
409.884	10.18593
410.097	-63.56133
410.31	1.75615
410.523	1.75615
410.736	69.20492
410.949	-23.53085
411.162	-63.56133
411.375	-78.3071
411.588	-61.45468
411.801	3.86356
412.014	-6.67324
412.227	-40.38689
412.44	-57.24133
412.653	43.90883
412.865	24.93896
413.078	-65.66794
413.291	92.39587
413.504	-2.45859
413.717	-6.67324
413.93	73.42125
414.143	-0.35123
414.356	43.90883
414.568	-15.10224
414.781	33.36978
414.994	35.47754
415.207	-15.10224
415.42	35.47754
415.632	46.01671
415.845	-40.38689
416.058	-19.31659
416.271	64.98867
416.483	-44.60065
416.696	-61.45468
416.909	54.44846
417.121	37.58533
417.334	-50.9211
417.547	-34.06606
417.759	-67.77453
417.972	-31.95906
418.185	-23.53085
418.397	1.75615
418.61	-46.70749
418.823	-6.67324
419.035	-0.35123
419.248	-4.56592
419.46	46.01671
419.673	-12.99502
419.885	-57.24133
420.098	-31.95906
420.311	-10.88778
420.523	46.01671
420.736	29.15432
420.948	-38.27997
421.161	20.72369
421.373	16.50851
421.586	22.83131
421.798	69.20492
422.01	-6.67324
422.223	37.58533
422.435	14.40096
422.648	-40.38689
422.86	1.75615
423.073	12.29343
423.285	-31.95906
423.497	-23.53085
423.71	-2.45859
423.922	-15.10224
424.134	-6.67324
424.347	-36.17303
424.559	-48.81431
424.771	-12.99502
424.984	-12.99502
425.196	-65.66794
425.408	-55.13461
425.621	-2.45859
425.833	33.36978
426.045	8.07845
426.257	43.90883
426.47	-23.53085
426.682	39.69314
426.894	-15.10224
427.106	-29.85205
427.318	-6.67324
427.531	54.44846
427.743	16.50851
427.955	3.86356
428.167	75.52945
428.379	22.83131
428.591	10.18593
428.804	60.77252
429.016	-23.53085
429.228	1.75615
429.44	-23.53085
429.652	22.83131
429.864	20.72369
430.076	-38.27997
430.288	-15.10224
430.5	73.42125
430.712	-10.88778
430.924	35.47754
431.136	8.07845
431.348	-65.66794
431.56	-6.67324
431.772	-46.70749
431.984	-12.99502
432.196	88.17913
432.408	46.01671
432.62	-53.02787
432.832	-57.24133
433.044	-15.10224
433.256	5.97099
433.468	-23.53085
433.679	18.61609
433.891	10.18593
434.103	-31.95906
434.315	48.12461
434.527	-12.99502
434.739	20.72369
434.95	31.26204
435.162	18.61609
435.374	10.18593
435.586	-50.9211
435.798	1.75615
436.009	-74.09415
436.221	33.36978
436.433	-23.53085
436.645	-46.70749
436.856	-4.56592
437.068	-38.27997
437.28	-0.35123
437.491	35.47754
437.703	-4.56592
437.915	5.97099
438.126	-31.95906
438.338	-63.56133
438.55	-4.56592
438.761	-15.10224
438.973	5.97099
439.184	-44.60065
439.396	-10.88778
439.608	22.83131
439.819	77.63768
440.031	60.77252
440.242	-10.88778
440.454	24.93896
440.665	27.04663
440.877	-31.95906
441.088	-10.88778
441.3	-10.88778
441.511	-31.95906
441.723	24.93896
441.934	-38.27997
442.146	62.88058
442.357	43.90883
442.569	43.90883
442.78	18.61609
442.991	39.69314
443.203	-23.53085
443.414	-2.45859
443.626	-12.99502
443.837	1.75615
444.048	60.77252
444.26	22.83131
444.471	37.58533
444.682	-4.56592
444.894	-15.10224
445.105	43.90883
445.316	18.61609
445.528	18.61609
445.739	-2.45859
445.95	3.86356
446.161	43.90883
446.373	12.29343
446.584	-17.20943
446.795	14.40096
447.006	-44.60065
447.217	-57.24133
447.429	-31.95906
447.64	-21.42373
447.851	35.47754
448.062	-12.99502
448.273	18.61609
448.484	-12.99502
448.695	-21.42373
448.907	-4.56592
449.118	88.17913
449.329	-15.10224
449.54	-36.17303
449.751	-46.70749
449.962	5.97099
450.173	-40.38689
450.384	-88.83902
450.595	46.01671
450.806	-31.95906
451.017	73.42125
451.228	1.75615
451.439	10.18593
451.65	-63.56133
451.861	37.58533
452.072	-38.27997
452.283	-29.85205
452.494	1.75615
452.705	-23.53085
452.915	-12.99502
453.126	-29.85205
453.337	-23.53085
453.548	1.75615
453.759	52.34049
453.97	-6.67324
454.181	12.29343
454.391	-44.60065
454.602	41.80097
454.813	-19.31659
455.024	-0.35123
455.235	27.04663
455.445	-19.31659
455.656	-2.45859
455.867	-21.42373
456.078	27.04663
456.288	-38.27997
456.499	46.01671
456.71	64.98867
456.921	-6.67324
457.131	-15.10224
457.342	1.75615
457.553	-8.78052
457.763	-46.70749
457.974	20.72369
458.184	-40.38689
458.395	-15.10224
458.606	37.58533
458.816	1.75615
459.027	20.72369
459.237	-21.42373
459.448	-42.49378
459.659	-6.67324
459.869	-29.85205
460.08	3.86356
460.29	10.18593
460.501	35.47754
460.711	1.75615
460.922	5.97099
461.132	56.55646
461.343	27.04663
461.553	-8.78052
461.764	10.18593
461.974	-55.13461
462.184	-59.34802
462.395	-31.95906
462.605	-6.67324
462.816	14.40096
463.026	-4.56592
463.236	43.90883
463.447	16.50851
463.657	12.29343
463.867	46.01671
464.078	-12.99502
464.288	5.97099
464.498	31.26204
464.709	41.80097
464.919	-12.99502
465.129	10.18593
465.339	1.75615
465.55	18.61609
465.76	-4.56592
465.97	-40.38689
466.18	10.18593
466.391	39.69314
466.601	-25.63794
466.811	-21.42373
467.021	-29.85205
467.231	-48.81431
467.441	37.58533
467.651	43.90883
467.862	20.72369
468.072	-40.38689
468.282	18.61609
468.492	27.04663
468.702	43.90883
468.912	-34.06606
469.122	39.69314
469.332	-69.8811
469.542	10.18593
469.752	1.75615
469.962	22.83131
470.172	94.50427
470.382	-48.81431
470.592	-57.24133
470.802	-19.31659
471.012	-95.15786
471.222	-40.38689
471.432	18.61609
471.642	-29.85205
471.852	10.18593
472.062	1.75615
472.272	-27.74501
472.482	5.97099
472.691	60.77252
472.901	43.90883
473.111	-78.3071
473.321	-6.67324
473.531	10.18593
473.741	-23.53085
473.95	12.29343
474.16	14.40096
474.37	-2.45859
474.58	22.83131
474.79	-10.88778
474.999	-23.53085
475.209	-55.13461
475.419	10.18593
475.628	16.50851
475.838	18.61609
476.048	-55.13461
476.258	41.80097
476.467	94.50427
476.677	10.18593
476.886	46.01671
477.096	43.90883
477.306	39.69314
477.515	79.74592
477.725	3.86356
477.935	-50.9211
478.144	5.97099
478.354	46.01671
478.563	-38.27997
478.773	-6.67324
478.982	35.47754
479.192	16.50851
479.401	-31.95906
479.611	29.15432
479.82	-50.9211
480.03	12.29343
480.239	54.44846
480.449	56.55646
480.658	-23.53085
480.868	3.86356
481.077	-40.38689
481.287	10.18593
481.496	-23.53085
481.705	10.18593
481.915	1.75615
482.124	22.83131
482.333	37.58533
482.543	-21.42373
482.752	39.69314
482.961	-8.78052
483.171	24.93896
483.38	-6.67324
483.589	10.18593
483.799	5.97099
484.008	-122.53679
484.217	-38.27997
484.426	-12.99502
484.636	-4.56592
484.845	-12.99502
485.054	69.20492
485.263	-36.17303
485.472	60.77252
485.682	-8.78052
485.891	111.37229
486.1	3.86356
486.309	18.61609
486.518	14.40096
486.727	-23.53085
486.936	52.34049
487.146	39.69314
487.355	-12.99502
487.564	18.61609
487.773	27.04663
487.982	-4.56592
488.191	-4.56592
488.4	16.50851
488.609	52.34049
488.818	37.58533
489.027	5.97099
489.236	20.72369
489.445	37.58533
489.654	52.34049
489.863	-67.77453
490.072	27.04663
490.281	-12.99502
490.49	-10.88778
490.698	14.40096
490.907	-6.67324
491.116	33.36978
491.325	-6.67324
491.534	27.04663
491.743	10.18593
491.952	-15.10224
492.16	31.26204
492.369	33.36978
492.578	-15.10224
492.787	-2.45859
492.996	121.91552
493.204	64.98867
493.413	-2.45859
493.622	3.86356
493.831	102.93811
494.039	-6.67324
494.248	86.0708
494.457	-31.95906
494.665	-48.81431
494.874	14.40096
495.083	60.77252
495.291	-23.53085
495.5	62.88058
495.709	31.26204
495.917	43.90883
496.126	24.93896
496.335	-23.53085
496.543	73.42125
496.752	77.63768
496.96	-82.51994
497.169	-27.74501
497.377	18.61609
497.586	-40.38689
497.794	12.29343
498.003	8.07845
498.211	48.12461
498.42	8.07845
498.628	46.01671
498.837	-4.56592
499.045	16.50851
499.254	29.15432
499.462	69.20492
499.671	3.86356
499.879	14.40096
500.087	60.77252
500.296	-21.42373
500.504	27.04663
500.713	27.04663
500.921	33.36978
501.129	-42.49378
501.338	48.12461
501.546	39.69314
501.754	69.20492
501.962	27.04663
502.171	-17.20943
502.379	90.28749
502.587	86.0708
502.795	48.12461
503.004	-2.45859
503.212	27.04663
503.42	60.77252
503.628	-88.83902
503.837	14.40096
504.045	18.61609
504.253	52.34049
504.461	-15.10224
504.669	20.72369
504.877	-0.35123
505.085	-80.41353
505.294	1.75615
505.502	69.20492
505.71	27.04663
505.918	86.0708
506.126	-6.67324
506.334	77.63768
506.542	1.75615
506.75	58.66448
506.958	-12.99502
507.166	111.37229
507.374	18.61609
507.582	-48.81431
507.79	14.40096
507.998	-2.45859
508.206	-57.24133
508.414	-55.13461
508.622	102.93811
508.83	27.04663
509.037	83.96248
509.245	8.07845
509.453	-10.88778
509.661	60.77252
509.869	-15.10224
510.077	39.69314
510.285	-6.67324
510.492	10.18593
510.7	56.55646
510.908	86.0708
511.116	-15.10224
511.324	-0.35123
511.531	5.97099
511.739	3.86356
511.947	20.72369
512.155	88.17913
512.362	-46.70749
512.57	3.86356
512.778	5.97099
512.985	-6.67324
513.193	-23.53085
513.401	20.72369
513.608	37.58533
513.816	27.04663
514.024	56.55646
514.231	107.15516
514.439	88.17913
514.646	14.40096
514.854	24.93896
515.061	12.29343
515.269	-15.10224
515.477	-15.10224
515.684	29.15432
515.892	69.20492
516.099	31.26204
516.307	46.01671
516.514	-19.31659
516.722	35.47754
516.929	-31.95906
517.136	62.88058
517.344	64.98867
517.551	18.61609
517.759	18.61609
517.966	33.36978
518.173	56.55646
518.381	54.44846
518.588	52.34049
518.796	5.97099
519.003	-15.10224
519.21	20.72369
519.418	-15.10224
519.625	69.20492
519.832	10.18593
520.039	35.47754
520.247	41.80097
520.454	22.83131
520.661	18.61609
520.868	-2.45859
521.076	69.20492
521.283	29.15432
521.49	-2.45859
521.697	18.61609
521.904	33.36978
522.112	52.34049
522.319	37.58533
522.526	102.93811
522.733	3.86356
522.94	-29.85205
523.147	43.90883
523.354	46.01671
523.561	-31.95906
523.768	24.93896
523.975	67.09678
524.183	-36.17303
524.39	43.90883
524.597	52.34049
524.804	10.18593
525.011	20.72369
525.218	77.63768
525.425	29.15432
525.632	43.90883
525.838	20.72369
526.045	-36.17303
526.252	-21.42373
526.459	86.0708
526.666	83.96248
526.873	-15.10224
527.08	35.47754
527.287	20.72369
527.494	37.58533
527.701	-10.88778
527.907	35.47754
528.114	100.82962
528.321	-10.88778
528.528	50.23254
528.735	54.44846
528.941	46.01671
529.148	31.26204
529.355	27.04663
529.562	90.28749
529.768	43.90883
529.975	29.15432
530.182	27.04663
530.388	27.04663
530.595	86.0708
530.802	5.97099
531.008	16.50851
531.215	58.66448
531.422	54.44846
531.628	-15.10224
531.835	56.55646
532.042	39.69314
532.248	60.77252
532.455	46.01671
532.661	60.77252
532.868	119.80683
533.074	10.18593
533.281	88.17913
533.487	22.83131
533.694	88.17913
533.9	111.37229
534.107	43.90883
534.313	100.82962
534.52	58.66448
534.726	43.90883
534.933	20.72369
535.139	60.77252
535.345	5.97099
535.552	48.12461
535.758	41.80097
535.965	88.17913
536.171	22.83131
536.377	27.04663
536.584	1.75615
536.79	128.24171
536.996	-10.88778
537.203	52.34049
537.409	64.98867
537.615	54.44846
537.821	-48.81431
538.028	22.83131
538.234	71.31307
538.44	107.15516
538.646	96.6127
538.853	73.42125
539.059	48.12461
539.265	10.18593
539.471	52.34049
539.677	64.98867
539.883	90.28749
540.09	121.91552
540.296	94.50427
540.502	56.55646
540.708	81.85419
540.914	16.50851
541.12	130.35049
541.326	62.88058
541.532	105.04662
541.738	64.98867
541.944	62.88058
542.15	79.74592
542.356	52.34049
542.562	71.31307
542.768	60.77252
542.974	27.04663
543.18	27.04663
543.386	62.88058
543.592	43.90883
543.798	86.0708
544.004	147.22146
544.21	58.66448
544.415	153.54842
544.621	35.47754
544.827	73.42125
545.033	75.52945
545.239	119.80683
545.445	94.50427
545.651	86.0708
545.856	90.28749
546.062	69.20492
546.268	31.26204
546.474	77.63768
546.679	46.01671
546.885	128.24171
547.091	43.90883
547.297	69.20492
547.502	94.50427
547.708	62.88058
547.914	153.54842
548.119	22.83131
548.325	46.01671
548.531	46.01671
548.736	115.58952
548.942	92.39587
549.147	126.13296
549.353	29.15432
549.559	145.11251
549.764	132.45929
549.97	94.50427
550.175	81.85419
550.381	113.4809
550.586	151.43941
550.792	94.50427
550.997	172.53045
551.203	96.6127
551.408	161.98467
551.614	202.06136
551.819	164.09378
552.025	60.77252
552.23	126.13296
552.435	90.28749
552.641	105.04662
552.846	73.42125
553.052	204.17086
553.257	140.89469
553.462	130.35049
553.668	130.35049
553.873	52.34049
554.078	161.98467
554.283	153.54842
554.489	111.37229
554.694	119.80683
554.899	86.0708
555.105	64.98867
555.31	161.98467
555.515	119.80683
555.72	115.58952
555.925	105.04662
556.131	113.4809
556.336	119.80683
556.541	130.35049
556.746	60.77252
556.951	79.74592
557.156	136.67694
557.361	111.37229
557.567	128.24171
557.772	187.2954
557.977	54.44846
558.182	73.42125
558.387	153.54842
558.592	193.62355
558.797	107.15516
559.002	88.17913
559.207	172.53045
559.412	172.53045
559.617	54.44846
559.822	145.11251
560.027	96.6127
560.232	140.89469
560.437	113.4809
560.642	50.23254
560.847	124.02423
561.051	138.7858
561.256	180.96744
561.461	161.98467
561.666	151.43941
561.871	94.50427
562.076	92.39587
562.281	113.4809
562.485	113.4809
562.69	153.54842
562.895	119.80683
563.1	233.70599
563.305	189.40476
563.509	86.0708
563.714	151.43941
563.919	113.4809
564.123	115.58952
564.328	180.96744
564.533	128.24171
564.737	166.20292
564.942	143.00359
565.147	145.11251
565.351	199.95188
565.556	164.09378
565.761	128.24171
565.965	166.20292
566.17	149.33043
566.374	212.60907
566.579	136.67694
566.784	216.8283
566.988	145.11251
567.193	208.38993
567.397	183.07674
567.602	164.09378
567.806	164.09378
568.011	161.98467
568.215	145.11251
568.42	168.31207
568.624	174.63967
568.828	153.54842
569.033	128.24171
569.237	174.63967
569.442	174.63967
569.646	176.7489
569.85	265.355
570.055	138.7858
570.259	136.67694
570.463	197.84241
570.668	128.24171
570.872	138.7858
571.076	231.59621
571.281	187.2954
571.485	197.84241
571.689	240.03545
571.893	178.85816
572.098	246.36508
572.302	191.51415
572.506	195.73297
572.71	174.63967
572.914	229.48645
573.119	280.12601
573.323	250.58493
573.527	212.60907
573.731	246.36508
573.935	202.06136
574.139	189.40476
574.343	178.85816
574.547	208.38993
574.751	237.92561
574.955	136.67694
575.159	136.67694
575.364	231.59621
575.568	138.7858
575.772	216.8283
575.976	250.58493
576.18	197.84241
576.383	263.24494
576.587	334.99761
576.791	223.15728
576.995	284.34646
577.199	229.48645
577.403	199.95188
577.607	259.02486
577.811	273.79547
578.015	185.18606
578.219	170.42125
578.422	259.02486
578.626	256.91485
578.83	271.68532
579.034	275.90563
579.238	267.46509
579.442	246.36508
579.645	214.71868
579.849	322.33385
580.053	214.71868
580.257	261.13489
580.46	290.67728
580.664	191.51415
580.868	334.99761
581.071	280.12601
581.275	316.00221
581.479	261.13489
581.682	246.36508
581.886	318.11274
582.09	280.12601
582.293	313.8917
582.497	246.36508
582.7	271.68532
582.904	246.36508
583.107	305.44984
583.311	267.46509
583.515	334.99761
583.718	290.67728
583.922	339.219
584.125	233.70599
584.329	328.66565
584.532	332.88694
584.735	341.32972
584.939	326.55503
585.142	372.99264
585.346	353.99443
585.549	324.44443
585.753	309.67074
585.956	391.99222
586.159	284.34646
586.363	343.44047
586.566	330.77629
586.769	334.99761
586.973	324.44443
587.176	429.99538
587.379	364.54882
587.582	442.66424
587.786	278.01581
587.989	368.7707
588.192	362.43791
588.395	337.1083
588.599	318.11274
588.802	379.32569
589.005	400.43691
589.208	404.65936
589.411	366.65975
589.615	366.65975
589.818	417.32708
590.021	453.22206
590.224	368.7707
590.427	459.55694
590.63	349.77279
590.833	442.66424
591.036	387.76998
591.239	491.23337
591.442	468.00366
591.645	377.21465
591.848	406.7706
592.051	457.4453
592.254	413.10444
592.457	487.00965
592.66	419.43842
592.863	476.45062
593.066	305.44984
593.269	478.56239
593.472	381.43673
593.675	465.89196
593.878	368.7707
594.081	506.01685
594.284	400.43691
594.486	334.99761
594.689	425.77255
594.892	434.21827
595.095	417.32708
595.298	508.12883
595.5	491.23337
595.703	470.11538
595.906	487.00965
596.109	453.22206
596.311	391.99222
596.514	503.90488
596.717	427.88395
596.92	482.78599
597.122	476.45062
597.325	487.00965
597.528	516.57691
597.73	482.78599
597.933	484.89782
598.136	617.971
598.338	436.32974
598.541	415.21575
598.743	516.57691
598.946	586.28206
599.148	410.99314
599.351	539.8103
599.554	491.23337
599.756	535.58592
599.959	575.71972
600.161	634.87293
600.363	455.33367
600.566	535.58592
600.768	468.00366
600.971	636.98573
601.173	571.49488
601.376	639.09854
601.578	533.47375
601.78	698.262
601.983	495.45715
602.185	516.57691
602.388	626.42187
602.59	601.06987
602.792	605.29508
602.995	560.93302
603.197	575.71972
603.399	571.49488
603.601	440.55273
603.804	605.29508
604.006	664.45318
604.208	609.52034
604.41	586.28206
604.613	641.21136
604.815	552.48376
605.017	594.73216
605.219	639.09854
605.421	571.49488
605.623	584.16957
605.826	645.43704
606.028	508.12883
606.23	550.37148
606.432	552.48376
606.634	685.58335
606.836	484.89782
607.038	660.22729
607.24	626.42187
607.442	653.88854
607.644	622.19641
607.846	643.32419
608.048	563.04536
608.25	713.05426
608.452	647.5499
608.654	710.94105
608.856	698.262
609.058	744.75376
609.26	592.61962
609.462	670.79211
609.664	647.5499
609.866	736.30033
610.067	662.34023
610.269	746.86714
610.471	609.52034
610.673	761.66112
610.875	603.18247
611.077	808.15966
611.278	628.53462
611.48	841.97964
611.682	607.4077
611.884	732.07367
612.085	613.74564
612.287	736.30033
612.489	685.58335
612.69	708.82785
612.892	643.32419
613.094	822.95561
613.295	660.22729
613.497	825.06936
613.699	742.64038
613.9	816.61443
614.102	822.95561
614.304	869.46005
614.505	710.94105
614.707	761.66112
614.908	643.32419
615.11	829.29687
615.311	696.14886
615.513	702.4883
615.714	791.25055
615.916	748.98054
616.117	670.79211
616.319	774.34207
616.52	698.262
616.722	888.48578
616.923	763.77459
617.124	841.97964
617.326	780.68268
617.527	869.46005
617.729	721.50723
617.93	848.32114
618.131	761.66112
618.333	829.29687
618.534	793.36416
618.735	875.80189
618.937	789.13696
619.138	913.85444
619.339	841.97964
619.54	994.19557
619.742	899.05592
619.943	888.48578
620.144	848.32114
620.345	998.42433
620.546	803.93232
620.748	871.57399
620.949	880.02982
621.15	820.84188
621.351	795.47777
621.552	1015.3396
621.753	816.61443
621.954	939.22421
622.155	831.41065
622.356	909.62625
622.558	863.11829
622.759	831.41065
622.96	850.435
623.161	888.48578
623.362	848.32114
623.563	983.6238
623.764	922.31091
623.965	1015.3396
624.166	994.19557
624.366	1011.11074
624.567	922.31091
624.768	1063.97313
624.969	856.7766
625.17	892.71381
625.371	812.38703
625.572	956.13798
625.773	846.2073
625.973	985.73814
626.174	871.57399
626.375	977.28082
626.576	907.51217
626.777	958.25223
626.977	841.97964
627.178	1085.11906
627.379	846.2073
627.58	841.97964
627.78	755.32078
627.981	918.08266
628.182	833.52443
628.382	1023.79738
628.583	863.11829
628.784	1091.46294
628.984	973.05219
629.185	1074.54603
629.386	890.59979
629.586	1023.79738
629.787	956.13798
629.987	1057.62946
630.188	1006.88191
630.388	1142.21553
630.589	918.08266
630.79	1214.11914
630.99	1028.02631
631.191	1093.57758
631.391	880.02982
631.591	1023.79738
631.792	1030.14078
631.992	1209.8894
632.193	1032.25526
632.393	1188.74091
632.594	920.19678
632.794	1095.69222
632.994	1068.20228
633.195	1093.57758
633.395	1127.41242
633.595	1220.46377
633.796	1061.85857
633.996	1199.31511
634.196	1102.03617
634.397	1157.01885
634.597	1163.36319
634.797	1269.10683
634.997	1040.71324
635.198	1150.67455
635.398	1083.00445
635.598	1233.15312
635.798	1006.88191
635.998	1095.69222
636.199	1040.71324
636.399	1133.75658
636.599	1049.1713
636.799	1192.97058
636.999	1032.25526
637.199	1214.11914
637.399	1102.03617
637.599	1192.97058
637.799	964.59503
637.999	1209.8894
638.199	1053.40037
638.399	1159.13363
638.599	1023.79738
638.799	1184.51125
638.999	1083.00445
639.199	1288.14145
639.399	1152.78931
639.599	1368.51155
639.799	1085.11906
639.999	1300.83129
640.199	1144.33028
640.399	1197.20026
640.599	1201.42996
640.799	1381.20175
640.998	1233.15312
641.198	1336.78623
641.398	1127.41242
641.598	1277.56664
641.798	1237.38293
641.997	1429.84778
642.197	1154.90408
642.397	1275.45168
642.597	1296.60134
642.796	1345.24629
642.996	1252.18734
643.196	1353.70636
643.395	1243.72766
643.595	1387.54686
643.795	1207.77453
643.994	1408.6973
644.194	1438.30799
644.394	1385.43182
644.593	1311.40622
644.793	1247.95749
644.992	1341.01625
645.192	1374.85664
645.392	1258.53213
645.591	1396.00703
645.791	1254.30227
645.99	1362.16646
646.19	1313.52121
646.389	1556.75038
646.589	1370.62658
646.788	1372.74161
646.987	1224.69354
647.187	1431.96284
647.386	1228.92332
647.586	1368.51155
647.785	1315.63621
647.984	1508.10463
648.184	1393.89199
648.383	1529.25502
648.582	1450.9983
648.782	1548.29029
648.981	1463.68862
649.18	1324.09619
649.38	1374.85664
649.579	1533.48509
649.778	1505.98959
649.977	1624.43017
650.177	1379.08671
650.376	1423.50263
650.575	1434.07789
650.774	1599.05046
650.973	1438.30799
651.173	1522.90992
651.372	1302.94628
651.571	1563.09543
651.77	1366.39652
651.969	1552.52034
652.168	1480.60903
652.367	1632.89
652.566	1434.07789
652.765	1599.05046
652.964	1582.1305
653.163	1556.75038
653.362	1336.78623
653.561	1527.13999
653.76	1607.51039
653.959	1489.06922
654.158	1463.68862
654.357	1599.05046
654.556	1497.52941
654.755	1683.64819
654.954	1450.9983
655.153	1603.28043
655.352	1558.8654
655.551	1584.2455
655.749	1632.89
655.948	1480.60903
656.147	1592.70549
656.346	1736.51952
656.545	1582.1305
656.743	1704.79696
656.942	1548.29029
657.141	1857.05733
657.34	1556.75038
657.538	1683.64819
657.737	1525.02495
657.936	1787.27394
658.135	1643.46474
658.333	1725.94542
658.532	1668.84387
658.731	1814.76495
658.929	1601.16545
659.128	1764.01177
659.326	1582.1305
659.525	1721.71575
659.724	1601.16545
659.922	1768.24129
660.121	1497.52941
660.319	1637.11991
660.518	1497.52941
660.716	1761.89701
660.915	1531.37006
661.113	1882.43183
661.312	1723.83059
661.51	1766.12654
661.709	1594.82048
661.907	1899.34776
662.105	1603.28043
662.304	1901.46222
662.502	1692.10773
662.701	1831.68213
662.899	1611.74035
663.097	1928.94978
663.296	1736.51952
663.494	1969.12216
663.692	1778.81503
663.891	1812.65028
664.089	1685.76308
664.287	1903.57668
664.485	1717.48608
664.684	2125.56047
664.882	1577.9005
665.08	1867.63013
665.278	1681.53329
665.476	1753.43791
665.675	1776.70029
665.873	1854.94276
666.071	1649.80956
666.269	1829.5675
666.467	1806.30626
666.665	1844.36982
666.863	1635.00495
667.061	1857.05733
667.259	1835.91138
667.457	2051.57414
667.655	1643.46474
667.853	1810.53561
668.051	1742.86394
668.249	1749.20833
668.447	1700.56723
668.645	1886.66085
668.843	1687.87797
669.041	1816.87961
669.239	1709.02668
669.437	1895.11881
669.635	1778.81503
669.833	1797.84749
670.031	1749.20833
670.229	1795.73279
670.426	1793.61808
670.624	1977.57923
670.822	1728.06025
671.02	1857.05733
671.218	1912.03447
671.415	1941.63603
671.613	1704.79696
671.811	1983.92196
672.009	1812.65028
672.206	1992.37885
672.404	1802.07688
672.602	1928.94978
672.799	1670.95878
672.997	1914.1489
673.195	1768.24129
673.392	1992.37885
673.59	1789.38866
673.788	1903.57668
673.985	1825.33822
674.183	1979.69348
674.38	1905.69114
674.578	2047.34608
674.775	1835.91138
674.973	1903.57668
675.17	1829.5675
675.368	2085.39759
675.565	1747.09354
675.763	2034.66174
675.96	1829.5675
676.158	1810.53561
676.355	1831.68213
676.553	1954.32206
676.75	1772.4708
676.947	2041.00394
677.145	1814.76495
677.342	1962.7793
677.539	1854.94276
677.737	1981.80772
677.934	1772.4708
678.131	2102.30861
678.329	1947.97907
678.526	2064.25815
678.723	1861.28647
678.92	2123.4467
679.118	1920.49217
679.315	1998.72145
679.512	1971.23644
679.709	2047.34608
679.906	1829.5675
680.104	2188.96978
680.301	1833.79675
680.498	1903.57668
680.695	1831.68213
680.892	2021.97715
681.089	1725.94542
681.286	2055.80217
681.483	1780.92976
681.68	1998.72145
681.877	1772.4708
682.075	1888.77534
682.272	1907.80559
682.469	1969.12216
682.665	1797.84749
682.862	1821.10893
683.059	1947.97907
683.256	1998.72145
683.453	1685.76308
683.65	1867.63013
683.847	1835.91138
684.044	2000.83564
684.241	1795.73279
684.438	2013.52063
684.635	1799.96219
684.831	1914.1489
685.028	1810.53561
685.225	2068.48609
685.422	1753.43791
685.619	1895.11881
685.815	1933.17855
686.012	1844.36982
686.209	1939.52167
686.405	2114.99156
686.602	1831.68213
686.799	1865.51558
686.996	1857.05733
687.192	2186.85625
687.389	1854.94276
687.586	1909.92003
687.782	1776.70029
687.979	1977.57923
688.175	1753.43791
688.372	2041.00394
688.568	1810.53561
688.765	1977.57923
688.962	1939.52167
689.158	2186.85625
689.355	1842.25521
689.551	2000.83564
689.748	1950.09341
689.944	2005.06399
690.14	1926.83539
690.337	2002.94982
690.533	1962.7793
690.73	1996.60726
690.926	1903.57668
691.123	2072.71401
691.319	1818.99427
691.515	2199.53728
691.712	2089.62539
691.908	1979.69348
692.104	1981.80772
692.301	2123.4467
692.497	1996.60726
692.693	2140.35662
692.889	1793.61808
693.086	2165.72055
693.282	1905.69114
693.478	1998.72145
693.674	1897.23328
693.87	1833.79675
694.067	1876.08828
694.263	2015.63477
694.459	1924.72099
694.655	2013.52063
694.851	1916.26333
695.047	2030.43357
695.243	1895.11881
695.439	2051.57414
695.635	1816.87961
695.831	2045.23204
696.027	1876.08828
696.224	2085.39759
696.42	1823.22358
696.615	2098.0809
696.811	1912.03447
697.007	2127.67423
697.203	2000.83564
697.399	1928.94978
697.595	1846.48442
697.791	1935.29293
697.987	1983.92196
698.183	2055.80217
698.379	2062.14417
698.575	2072.71401
698.77	1886.66085
698.966	2055.80217
699.162	1937.4073
699.358	2117.10535
699.554	1823.22358
699.749	2055.80217
699.945	1823.22358
700.141	2064.25815
700.337	1736.51952
700.532	2072.71401
700.728	1914.1489
700.924	2100.19475
701.119	1844.36982
701.315	2087.51149
701.511	1806.30626
701.706	2064.25815
701.902	1878.2028
702.097	1969.12216
702.293	1852.82818
702.489	2032.54766
702.684	1994.49306
702.88	2106.53629
703.075	1914.1489
703.271	2112.87775
703.466	1816.87961
703.662	1950.09341
703.857	2009.29232
704.053	2117.10535
704.248	1846.48442
704.443	2207.99112
704.639	2153.03873
704.834	1990.26464
705.03	2055.80217
705.225	2180.51563
705.42	1852.82818
705.616	2079.05583
705.811	1804.19157
706.006	2114.99156
706.202	1916.26333
706.397	2131.90172
706.592	2165.72055
706.787	2024.09127
706.983	2049.46012
707.178	2153.03873
707.373	1903.57668
707.568	2055.80217
707.763	1780.92976
707.959	2098.0809
708.154	2114.99156
708.349	2220.67163
708.544	2064.25815
708.739	2165.72055
708.934	1939.52167
709.129	2055.80217
709.324	1827.45286
709.519	2131.90172
709.714	1806.30626
709.909	2005.06399
710.104	1905.69114
710.299	2117.10535
710.494	2038.88988
710.689	2089.62539
710.884	2011.40648
711.079	2057.91618
711.274	1867.63013
711.469	2072.71401
711.664	1861.28647
711.859	1829.5675
712.054	1909.92003
712.249	2038.88988
712.443	1939.52167
712.638	2066.37212
712.833	1967.00788
713.028	2091.73927
713.223	1975.46497
713.417	1998.72145
713.612	1907.80559
713.807	2026.20538
714.002	1912.03447
714.196	2087.51149
714.391	1852.82818
714.586	2072.71401
714.78	1962.7793
714.975	2254.48478
715.17	1814.76495
715.364	2005.06399
715.559	1945.86473
715.754	2026.20538
715.948	1912.03447
716.143	2055.80217
716.337	1899.34776
716.532	2180.51563
716.726	1931.06417
716.921	2072.71401
717.115	1835.91138
717.31	1967.00788
717.504	1954.32206
717.699	2007.17816
717.893	1986.03619
718.088	1994.49306
718.282	1920.49217
718.476	1962.7793
718.671	1945.86473
718.865	2093.85316
719.059	1939.52167
719.254	1821.10893
719.448	1905.69114
719.642	2005.06399
719.837	1939.52167
720.031	2191.0833
720.225	1744.97874
720.419	1979.69348
720.614	1964.89359
720.808	2091.73927
721.002	1812.65028
721.196	1943.75038
721.39	1954.32206
721.585	2085.39759
721.779	1956.43638
721.973	2169.94776
722.167	1871.85921
722.361	1971.23644
722.555	1852.82818
722.749	1986.03619
722.943	1878.2028
723.137	1880.31732
723.331	1793.61808
723.525	1996.60726
723.719	1827.45286
723.913	1996.60726
724.107	1922.60658
724.301	2047.34608
724.495	1928.94978
724.689	2167.83416
724.883	1755.55269
725.077	2038.88988
725.271	1861.28647
725.465	2034.66174
725.659	1918.37775
725.853	2051.57414
726.046	1937.4073
726.24	1793.61808
726.434	1615.9703
726.628	2011.40648
726.822	1816.87961
727.015	2021.97715
727.209	1903.57668
727.403	2182.62918
727.596	1928.94978
727.79	2021.97715
727.984	1926.83539
728.177	2028.31948
728.371	1954.32206
728.565	1941.63603
728.758	2017.7489
728.952	1981.80772
729.146	1960.665
729.339	2083.28367
729.533	1823.22358
729.726	1992.37885
729.92	1945.86473
730.113	2015.63477
730.307	1905.69114
730.5	2076.9419
730.694	1683.64819
730.887	1893.00432
731.081	1776.70029
731.274	2011.40648
731.468	1601.16545
731.661	1947.97907
731.854	1730.17507
732.048	1952.20774
732.241	1878.2028
732.435	1992.37885
732.628	2011.40648
732.821	2009.29232
733.014	1998.72145
733.208	2064.25815
733.401	1922.60658
733.594	2051.57414
733.788	1920.49217
733.981	2021.97715
734.174	2098.0809
734.367	2000.83564
734.56	2076.9419
734.754	2024.09127
734.947	1926.83539
735.14	2072.71401
735.333	1812.65028
735.526	1973.35071
735.719	1744.97874
735.912	1967.00788
736.105	1861.28647
736.298	2047.34608
736.491	1895.11881
736.684	2032.54766
736.877	1918.37775
737.07	2045.23204
737.263	2161.49331
737.456	2019.86303
737.649	2064.25815
737.842	1888.77534
738.035	1852.82818
738.228	1945.86473
738.421	2083.28367
738.614	1992.37885
738.807	2114.99156
739	2169.94776
739.192	1928.94978
739.385	2005.06399
739.578	1844.36982
739.771	2055.80217
739.964	2038.88988
740.156	2079.05583
740.349	1952.20774
740.542	2032.54766
740.735	1986.03619
740.927	1926.83539
741.12	2005.06399
741.313	2032.54766
741.505	2032.54766
741.698	2051.57414
741.891	1994.49306
742.083	2123.4467
742.276	2100.19475
742.468	2098.0809
742.661	1926.83539
742.854	2032.54766
743.046	1907.80559
743.239	1956.43638
743.431	1990.26464
743.624	1907.80559
743.816	1924.72099
744.009	2098.0809
744.201	1920.49217
744.393	2024.09127
744.586	2085.39759
744.778	2007.17816
744.971	1768.24129
745.163	2083.28367
745.355	2021.97715
745.548	2005.06399
745.74	1928.94978
745.932	1912.03447
746.125	2093.85316
746.317	1962.7793
746.509	1964.89359
746.702	2026.20538
746.894	1888.77534
747.086	1967.00788
747.278	1914.1489
747.471	1994.49306
747.663	1992.37885
747.855	2066.37212
748.047	1914.1489
748.239	2089.62539
748.431	1939.52167
748.623	1958.55069
748.815	1928.94978
749.008	1958.55069
749.2	1958.55069
749.392	1983.92196
749.584	1776.70029
749.776	2123.4467
749.968	1852.82818
750.16	2007.17816
750.352	1793.61808
750.544	2047.34608
750.736	2055.80217
750.928	1931.06417
751.12	1996.60726
751.311	2021.97715
751.503	2038.88988
751.695	2034.66174
751.887	1867.63013
752.079	1971.23644
752.271	1818.99427
752.463	2098.0809
752.654	2021.97715
752.846	1928.94978
753.038	1844.36982
753.23	2060.03017
753.421	1920.49217
753.613	1838.02599
753.805	2009.29232
753.997	1973.35071
754.188	2055.80217
754.38	1778.81503
754.572	1901.46222
754.763	1903.57668
754.955	1827.45286
755.146	1924.72099
755.338	1776.70029
755.53	1852.82818
755.721	1747.09354
755.913	1890.88984
756.104	1744.97874
756.296	1869.74468
756.487	1857.05733
756.679	2066.37212
756.87	1776.70029
757.062	1931.06417
757.253	1859.1719
757.445	1844.36982
757.636	1747.09354
757.827	1988.15042
758.019	1835.91138
758.21	1882.43183
758.401	1797.84749
758.593	2043.118
758.784	1605.39541
758.975	1827.45286
759.167	1831.68213
759.358	1802.07688
759.549	1818.99427
759.74	1924.72099
759.932	1895.11881
760.123	1692.10773
760.314	1656.15435
760.505	1780.92976
760.696	1865.51558
760.888	1895.11881
761.079	1799.96219
761.27	1844.36982
761.461	1683.64819
761.652	1863.40103
761.843	1920.49217
762.034	1878.2028
762.225	1755.55269
762.416	1711.14153
762.607	1615.9703
762.798	1833.79675
762.989	1804.19157
763.18	1821.10893
763.371	1744.97874
763.562	1766.12654
763.753	1717.48608
763.944	1844.36982
764.135	1761.89701
764.326	1818.99427
764.517	1484.83912
764.708	1689.99285
764.899	1620.20024
765.089	1717.48608
765.28	1654.03943
765.471	1654.03943
765.662	1711.14153
765.853	1670.95878
766.043	1396.00703
766.234	1544.06024
766.425	1611.74035
766.615	1582.1305
766.806	1651.92449
766.997	1778.81503
767.187	1531.37006
767.378	1717.48608
767.569	1465.80367
767.759	1628.66009
767.95	1520.79488
768.141	1761.89701
768.331	1605.39541
768.522	1607.51039
768.712	1582.1305
768.903	1774.58555
769.093	1569.44047
769.284	1558.8654
769.474	1560.98041
769.665	1605.39541
769.855	1628.66009
770.046	1740.74914
770.236	1442.53809
770.426	1594.82048
770.617	1675.1886
770.807	1791.50337
770.998	1499.64446
771.188	1768.24129
771.378	1575.78549
771.569	1658.26928
771.759	1541.94521
771.949	1554.63536
772.139	1510.21968
772.33	1404.4672
772.52	1533.48509
772.71	1569.44047
772.9	1489.06922
773.09	1558.8654
773.281	1396.00703
773.471	1541.94521
773.661	1421.38758
773.851	1525.02495
774.041	1651.92449
774.231	1641.3498
774.421	1400.23711
774.611	1396.00703
774.802	1516.5648
774.992	1501.7595
775.182	1415.04244
775.372	1522.90992
775.562	1321.98119
775.752	1594.82048
775.942	1421.38758
776.131	1567.32546
776.321	1527.13999
776.511	1491.18427
776.701	1467.91872
776.891	1544.06024
777.081	1522.90992
777.271	1525.02495
777.461	1429.84778
777.651	1531.37006
777.84	1408.6973
778.03	1618.08527
778.22	1353.70636
778.41	1525.02495
778.599	1376.97168
778.789	1607.51039
778.979	1450.9983
779.169	1556.75038
779.358	1292.37139
779.548	1412.92739
779.738	1321.98119
779.927	1582.1305
780.117	1400.23711
780.307	1438.30799
780.496	1347.3613
780.686	1410.81234
780.875	1347.3613
781.065	1362.16646
781.254	1286.02648
781.444	1525.02495
781.633	1228.92332
781.823	1408.6973
782.012	1381.20175
782.202	1264.87694
782.391	1235.26802
782.581	1355.82139
782.77	1307.17624
782.96	1273.33673
783.149	1184.51125
783.338	1163.36319
783.528	1192.97058
783.717	1417.15749
783.906	1336.78623
784.096	1387.54686
784.285	1129.52714
784.474	1357.93641
784.663	1288.14145
784.853	1457.34346
785.042	1235.26802
785.231	1277.56664
785.42	1197.20026
785.61	1412.92739
785.799	1097.80687
785.988	1209.8894
786.177	998.42433
786.366	1209.8894
786.555	1195.08542
786.744	1226.80843
786.933	1188.74091
787.122	1332.55621
787.312	1381.20175
787.501	1159.13363
787.69	1059.74401
787.879	1184.51125
788.068	1102.03617
788.257	1125.29771
788.445	1097.80687
788.634	1152.78931
788.823	1150.67455
789.012	1311.40622
789.201	1176.05198
789.39	1133.75658
789.579	896.94188
789.768	1192.97058
789.957	1057.62946
790.145	1231.03822
790.334	1015.3396
790.523	1142.21553
790.712	1108.38017
790.9	1152.78931
791.089	1074.54603
791.278	1163.36319
791.467	1237.38293
791.655	1133.75658
791.844	1123.183
792.033	1140.10079
792.221	1201.42996
792.41	1106.2655
792.599	1044.94226
792.787	1258.53213
792.976	1032.25526
793.164	1302.94628
793.353	1135.87131
793.541	1066.0877
793.73	1087.23368
793.918	1186.62608
794.107	1131.64186
794.295	1137.98605
794.484	1068.20228
794.672	1032.25526
794.861	973.05219
795.049	1127.41242
795.238	1070.31686
795.426	1038.59873
795.614	1184.51125
795.803	1131.64186
795.991	1129.52714
796.179	1125.29771
796.368	1049.1713
796.556	1011.11074
796.744	903.28403
796.932	981.50947
797.121	922.31091
797.309	1118.9536
797.497	981.50947
797.685	1167.59277
797.874	1040.71324
798.062	1142.21553
798.25	922.31091
798.438	1095.69222
798.626	979.39514
798.814	1036.48424
799.002	964.59503
799.19	1074.54603
799.378	1008.99632
799.566	1028.02631
799.755	975.1665
799.943	992.08121
800.131	941.33841
800.318	1091.46294
800.506	973.05219
800.694	1152.78931
800.882	964.59503
801.07	1074.54603
801.258	981.50947
801.446	1118.9536
801.634	850.435
801.822	1066.0877
802.01	924.42505
802.197	1121.0683
802.385	934.99584
802.573	1118.9536
802.761	1167.59277
802.949	1072.43144
803.136	913.85444
803.324	1038.59873
803.512	947.68104
803.699	989.96684
803.887	1040.71324
804.075	1091.46294
804.262	1068.20228
804.45	1192.97058
804.638	1000.53871
804.825	1091.46294
805.013	1099.92152
805.201	1102.03617
805.388	926.53919
805.576	1019.56848
805.763	977.28082
805.951	1057.62946
806.138	989.96684
806.326	1040.71324
806.513	1011.11074
806.701	949.79526
806.888	989.96684
807.075	1051.28583
807.263	1006.88191
807.45	1152.78931
807.638	1057.62946
807.825	1165.47798
808.012	954.02373
808.2	968.8236
808.387	1091.46294
808.574	1108.38017
808.761	1087.23368
808.949	1078.77523
809.136	1072.43144
809.323	1068.20228
809.51	1125.29771
809.698	1025.91184
809.885	922.31091
810.072	1184.51125
810.259	1044.94226
810.446	1167.59277
810.633	1142.21553
810.82	1184.51125
811.008	1068.20228
811.195	1148.55979
811.382	1061.85857
811.569	1072.43144
811.756	905.3981
811.943	1231.03822
812.13	1025.91184
812.317	1074.54603
812.504	1070.31686
812.691	1091.46294
812.878	945.56682
813.064	1176.05198
813.251	1057.62946
813.438	1209.8894
813.625	1116.8389
813.812	1176.05198
813.999	943.45261
814.186	1192.97058
814.372	1023.79738
814.559	1044.94226
814.746	983.6238
814.933	1042.82774
815.12	1051.28583
815.306	1116.8389
815.493	966.70931
815.68	1095.69222
815.866	983.6238
816.053	1085.11906
816.24	960.36649
816.426	1040.71324
816.613	1034.36975
816.799	1083.00445
816.986	954.02373
817.173	1182.39643
817.359	1028.02631
817.546	1091.46294
817.732	1044.94226
817.919	1125.29771
818.105	1047.05678
818.292	1137.98605
818.478	1015.3396
818.665	1023.79738
818.851	985.73814
819.037	1042.82774
819.224	1040.71324
819.41	1099.92152
819.597	981.50947
819.783	1112.60953
819.969	1023.79738
820.156	1017.45403
820.342	930.7675
820.528	1131.64186
820.714	918.08266
820.901	1061.85857
821.087	958.25223
821.273	1116.8389
821.459	1131.64186
821.646	1074.54603
821.832	992.08121
822.018	1047.05678
822.204	966.70931
822.39	989.96684
822.576	852.54886
822.762	1055.51491
822.948	1044.94226
823.134	949.79526
823.32	884.25779
823.507	1106.2655
823.693	1023.79738
823.879	1093.57758
824.065	1028.02631
824.25	1023.79738
824.436	905.3981
824.622	1074.54603
824.808	939.22421
824.994	1125.29771
825.18	856.7766
825.366	1066.0877
825.552	1011.11074
825.738	1004.76751
825.923	1091.46294
826.109	1161.24841
826.295	1074.54603
826.481	1159.13363
826.667	1042.82774
826.852	1154.90408
827.038	981.50947
827.224	1135.87131
827.409	968.8236
827.595	1068.20228
827.781	899.05592
827.966	1017.45403
828.152	841.97964
828.338	1091.46294
828.523	899.05592
828.709	975.1665
828.894	958.25223
829.08	1000.53871
829.266	846.2073
829.451	994.19557
829.637	778.56913
829.822	822.95561
830.008	803.93232
830.193	985.73814
830.378	812.38703
830.564	1002.65311
830.749	780.68268
830.935	905.3981
831.12	846.2073
831.305	956.13798
831.491	820.84188
831.676	899.05592
831.861	915.96855
832.047	873.68793
832.232	787.02337
832.417	1032.25526
832.602	774.34207
832.788	949.79526
832.973	913.85444
833.158	966.70931
833.343	901.16997
833.528	913.85444
833.714	791.25055
833.899	1028.02631
834.084	901.16997
834.269	1011.11074
834.454	841.97964
834.639	913.85444
834.824	850.435
835.009	886.37178
835.194	941.33841
835.379	981.50947
835.564	744.75376
835.749	863.11829
835.934	708.82785
836.119	920.19678
836.304	763.77459
836.489	865.2322
836.674	765.88806
836.859	774.34207
837.044	719.39397
837.228	846.2073
837.413	729.96036
837.598	841.97964
837.783	765.88806
837.968	746.86714
838.152	702.4883
838.337	867.34612
838.522	763.77459
838.707	761.66112
838.891	744.75376
839.076	744.75376
839.261	715.16749
839.445	833.52443
839.63	626.42187
839.815	880.02982
839.999	787.02337
840.184	856.7766
840.368	626.42187
840.553	746.86714
840.737	683.47028
840.922	725.73377
841.106	704.60147
841.291	713.05426
841.475	689.80952
841.66	894.82784
841.844	645.43704
842.029	744.75376
842.213	694.03574
842.397	757.43422
842.582	575.71972
842.766	763.77459
842.951	613.74564
843.135	780.68268
843.319	626.42187
843.504	651.77565
843.688	573.6073
843.872	672.90511
844.056	630.64738
844.241	725.73377
844.425	607.4077
844.609	797.5914
844.793	567.2701
844.977	778.56913
845.161	558.82068
845.346	675.01812
845.53	664.45318
845.714	719.39397
845.898	620.0837
846.082	634.87293
846.266	645.43704
846.45	727.84706
846.634	639.09854
846.818	626.42187
847.002	647.5499
847.186	601.06987
847.37	575.71972
847.554	649.66276
847.738	702.4883
847.922	719.39397
848.106	653.88854
848.29	704.60147
848.473	628.53462
848.657	639.09854
848.841	573.6073
849.025	546.14697
849.209	487.00965
849.392	605.29508
849.576	584.16957
849.76	575.71972
849.944	556.70836
850.127	603.18247
850.311	510.24083
850.495	643.32419
850.678	563.04536
850.862	677.13115
851.046	406.7706
851.229	713.05426
851.413	579.94462
851.596	592.61962
851.78	596.84472
851.964	662.34023
852.147	558.82068
852.331	639.09854
852.514	489.12151
852.698	601.06987
852.881	465.89196
853.065	565.15772
853.248	531.3616
853.431	541.92251
853.615	510.24083
853.798	544.03473
853.982	503.90488
854.165	634.87293
854.348	425.77255
854.532	592.61962
854.715	461.6686
854.898	535.58592
855.081	499.68099
855.265	465.89196
855.448	493.34525
855.631	516.57691
855.814	440.55273
855.997	546.14697
856.181	520.80104
856.364	377.21465
856.547	556.70836
856.73	537.6981
856.913	457.4453
857.096	662.34023
857.279	499.68099
857.462	495.45715
857.645	394.10337
857.828	493.34525
858.011	478.56239
858.194	554.59606
858.377	339.219
858.56	474.33885
858.743	364.54882
858.926	482.78599
859.109	440.55273
859.292	451.11047
859.475	453.22206
859.658	465.89196
859.841	410.99314
860.023	465.89196
860.206	440.55273
860.389	402.54813
860.572	391.99222
860.755	440.55273
860.937	398.32572
861.12	415.21575
861.303	372.99264
861.486	425.77255
861.668	381.43673
861.851	368.7707
862.034	377.21465
862.216	478.56239
862.399	383.5478
862.581	478.56239
862.764	404.65936
862.947	383.5478
863.129	356.10527
863.312	425.77255
863.494	423.66115
863.677	457.4453
863.859	387.76998
864.042	512.35284
864.224	406.7706
864.406	432.10681
864.589	297.00827
864.771	356.10527
864.954	292.78759
865.136	381.43673
865.318	343.44047
865.501	379.32569
865.683	292.78759
865.865	252.69488
866.048	299.11864
866.23	301.22902
866.412	339.219
866.594	316.00221
866.777	406.7706
866.959	398.32572
867.141	349.77279
867.323	381.43673
867.505	261.13489
867.687	408.88187
867.869	313.8917
868.052	385.65888
868.234	341.32972
868.416	364.54882
868.598	301.22902
868.78	328.66565
868.962	267.46509
869.144	432.10681
869.326	324.44443
869.508	282.23623
869.69	259.02486
869.872	326.55503
870.054	297.00827
870.236	334.99761
870.417	225.26699
870.599	398.32572
870.781	364.54882
870.963	318.11274
871.145	381.43673
871.327	334.99761
871.508	267.46509
871.69	288.56699
871.872	339.219
872.054	356.10527
872.235	318.11274
872.417	301.22902
872.599	265.355
872.78	381.43673
872.962	318.11274
873.144	417.32708
873.325	216.8283
873.507	324.44443
873.689	259.02486
873.87	389.88109
874.052	282.23623
874.233	303.33942
874.415	366.65975
874.596	240.03545
874.778	297.00827
874.959	324.44443
875.141	153.54842
875.322	381.43673
875.503	307.56028
875.685	307.56028
875.866	237.92561
876.048	297.00827
876.229	206.28038
876.41	284.34646
876.592	332.88694
876.773	297.00827
876.954	252.69488
877.136	324.44443
877.317	244.25518
877.498	294.89792
877.679	263.24494
877.86	267.46509
878.042	309.67074
878.223	204.17086
878.404	330.77629
878.585	273.79547
878.766	271.68532
878.947	316.00221
879.128	284.34646
879.309	254.80485
879.49	334.99761
879.672	326.55503
879.853	282.23623
880.034	356.10527
880.215	322.33385
880.396	303.33942
880.576	303.33942
880.757	273.79547
880.938	301.22902
881.119	341.32972
881.3	267.46509
881.481	332.88694
881.662	288.56699
881.843	453.22206
882.023	246.36508
882.204	280.12601
882.385	330.77629
882.566	218.93794
882.747	292.78759
882.927	332.88694
883.108	294.89792
883.289	366.65975
883.469	256.91485
883.65	328.66565
883.831	368.7707
884.011	375.10364
884.192	406.7706
884.373	362.43791
884.553	349.77279
884.734	408.88187
884.914	263.24494
885.095	347.662
885.275	343.44047
885.456	383.5478
885.636	453.22206
885.817	356.10527
885.997	290.67728
886.178	391.99222
886.358	248.47499
886.538	334.99761
886.719	256.91485
886.899	271.68532
887.08	339.219
887.26	364.54882
887.44	328.66565
887.621	358.21613
887.801	290.67728
887.981	294.89792
888.161	372.99264
888.342	349.77279
888.522	233.70599
888.702	347.662
888.882	297.00827
889.062	339.219
889.242	305.44984
889.423	313.8917
889.603	246.36508
889.783	351.8836
889.963	164.09378
890.143	332.88694
890.323	358.21613
890.503	265.355
890.683	229.48645
890.863	305.44984
891.043	313.8917
891.223	307.56028
891.403	324.44443
891.583	381.43673
891.763	307.56028
891.943	356.10527
892.122	326.55503
892.302	309.67074
892.482	349.77279
892.662	383.5478
892.842	242.1453
893.022	341.32972
893.201	294.89792
893.381	364.54882
893.561	305.44984
893.741	453.22206
893.92	288.56699
894.1	366.65975
894.28	305.44984
894.459	429.99538
894.639	368.7707
894.819	370.88166
894.998	307.56028
895.178	381.43673
895.357	199.95188
895.537	322.33385
895.716	267.46509
895.896	299.11864
896.075	250.58493
896.255	322.33385
896.434	332.88694
896.614	343.44047
896.793	267.46509
896.973	267.46509
897.152	256.91485
897.331	356.10527
897.511	164.09378
897.69	223.15728
897.87	339.219
898.049	297.00827
898.228	275.90563
898.407	316.00221
898.587	347.662
898.766	347.662
898.945	248.47499
899.124	301.22902
899.304	180.96744
899.483	339.219
899.662	237.92561
899.841	322.33385
900.02	195.73297
900.199	208.38993
900.378	237.92561
900.557	199.95188
900.737	221.0476
900.916	254.80485
901.095	290.67728
901.274	206.28038
901.453	212.60907
901.632	271.68532
901.811	229.48645
901.989	191.51415
902.168	286.45672
902.347	252.69488
902.526	231.59621
902.705	197.84241
902.884	208.38993
903.063	246.36508
903.242	204.17086
903.42	271.68532
903.599	145.11251
903.778	206.28038
903.957	178.85816
904.135	246.36508
904.314	136.67694
904.493	105.04662
904.672	195.73297
904.85	159.87558
905.029	223.15728
905.207	250.58493
905.386	157.7665
905.565	240.03545
905.743	132.45929
905.922	149.33043
906.1	223.15728
906.279	187.2954
906.457	180.96744
906.636	170.42125
906.814	166.20292
906.993	136.67694
907.171	126.13296
907.35	115.58952
907.528	225.26699
907.707	86.0708
907.885	206.28038
908.063	149.33043
908.242	102.93811
908.42	170.42125
908.598	69.20492
908.777	98.72115
908.955	157.7665
909.133	136.67694
909.311	134.5681
909.49	94.50427
909.668	164.09378
909.846	115.58952
910.024	161.98467
910.202	128.24171
910.38	195.73297
910.559	246.36508
910.737	56.55646
910.915	117.69816
911.093	96.6127
911.271	237.92561
911.449	170.42125
911.627	149.33043
911.805	130.35049
911.983	151.43941
912.161	98.72115
912.339	124.02423
912.517	124.02423
912.695	145.11251
912.872	111.37229
913.05	31.26204
913.228	67.09678
913.406	140.89469
913.584	161.98467
913.762	69.20492
913.939	119.80683
914.117	113.4809
914.295	147.22146
914.473	153.54842
914.65	124.02423
914.828	126.13296
915.006	119.80683
915.184	121.91552
915.361	178.85816
915.539	170.42125
915.716	111.37229
915.894	176.7489
916.072	50.23254
916.249	132.45929
916.427	170.42125
916.604	62.88058
916.782	153.54842
916.959	145.11251
917.137	107.15516
917.314	168.31207
917.492	212.60907
917.669	176.7489
917.847	117.69816
918.024	155.65745
918.201	54.44846
918.379	164.09378
918.556	98.72115
918.733	174.63967
918.911	27.04663
919.088	128.24171
919.265	98.72115
919.442	111.37229
919.62	79.74592
919.797	130.35049
919.974	14.40096
920.151	43.90883
920.328	166.20292
920.506	155.65745
920.683	119.80683
920.86	145.11251
921.037	62.88058
921.214	136.67694
921.391	62.88058
921.568	71.31307
921.745	105.04662
921.922	86.0708
922.099	218.93794
922.276	145.11251
922.453	94.50427
922.63	121.91552
922.807	56.55646
922.984	155.65745
923.161	37.58533
923.338	138.7858
923.514	1.75615
923.691	69.20492
923.868	81.85419
924.045	64.98867
924.222	94.50427
924.399	77.63768
924.575	86.0708
924.752	69.20492
924.929	195.73297
925.105	71.31307
925.282	24.93896
925.459	77.63768
925.635	71.31307
925.812	143.00359
925.989	86.0708
926.165	161.98467
926.342	96.6127
926.518	132.45929
926.695	77.63768
926.871	77.63768
927.048	43.90883
927.224	43.90883
927.401	43.90883
927.577	121.91552
927.754	94.50427
927.93	46.01671
928.107	71.31307
928.283	52.34049
928.459	54.44846
928.636	10.18593
928.812	90.28749
928.988	60.77252
929.165	102.93811
929.341	98.72115
929.517	102.93811
929.693	39.69314
929.87	79.74592
930.046	102.93811
930.222	94.50427
930.398	88.17913
930.574	18.61609
930.751	134.5681
930.927	71.31307
931.103	22.83131
931.279	98.72115
931.455	117.69816
931.631	119.80683
931.807	31.26204
931.983	62.88058
932.159	64.98867
932.335	88.17913
932.511	43.90883
932.687	10.18593
932.863	105.04662
933.039	102.93811
933.215	46.01671
933.391	31.26204
933.566	48.12461
933.742	60.77252
933.918	69.20492
934.094	52.34049
934.27	115.58952
934.445	111.37229
934.621	88.17913
934.797	52.34049
934.973	73.42125
935.148	60.77252
935.324	77.63768
935.5	60.77252
935.675	1.75615
935.851	52.34049
936.027	54.44846
936.202	10.18593
936.378	-4.56592
936.553	12.29343
936.729	-6.67324
936.904	35.47754
937.08	27.04663
937.255	18.61609
937.431	31.26204
937.606	-31.95906
937.782	58.66448
937.957	62.88058
938.133	35.47754
938.308	52.34049
938.483	1.75615
938.659	111.37229
938.834	62.88058
939.009	16.50851
939.185	71.31307
939.36	3.86356
939.535	69.20492
939.71	60.77252
939.886	77.63768
940.061	73.42125
940.236	52.34049
940.411	102.93811
940.586	107.15516
940.761	-69.8811
940.937	20.72369
941.112	-2.45859
941.287	31.26204
941.462	14.40096
941.637	37.58533
941.812	-17.20943
941.987	-38.27997
942.162	29.15432
942.337	37.58533
942.512	52.34049
942.687	31.26204
942.862	43.90883
943.037	12.29343
943.212	5.97099
943.386	69.20492
943.561	100.82962
943.736	81.85419
943.911	-63.56133
944.086	10.18593
944.26	37.58533
944.435	-23.53085
944.61	96.6127
944.785	-53.02787
944.959	46.01671
945.134	1.75615
945.309	52.34049
945.483	37.58533
945.658	-23.53085
945.833	60.77252
946.007	43.90883
946.182	8.07845
946.357	48.12461
946.531	22.83131
946.706	-34.06606
946.88	-40.38689
947.055	46.01671
947.229	-23.53085
947.404	-4.56592
947.578	58.66448
947.752	29.15432
947.927	39.69314
948.101	29.15432
948.276	10.18593
948.45	-82.51994
948.624	-19.31659
948.799	48.12461
948.973	12.29343
949.147	52.34049
949.321	86.0708
949.496	58.66448
949.67	29.15432
949.844	16.50851
950.018	-53.02787
950.193	60.77252
950.367	35.47754
950.541	81.85419
950.715	-6.67324
950.889	-27.74501
951.063	22.83131
951.237	-10.88778
951.411	111.37229
951.585	16.50851
951.759	35.47754
951.933	90.28749
952.107	16.50851
952.281	20.72369
952.455	-67.77453
952.629	-23.53085
952.803	113.4809
952.977	-48.81431
953.151	41.80097
953.325	1.75615
953.499	109.26371
953.672	71.31307
953.846	52.34049
954.02	54.44846
954.194	-2.45859
954.368	35.47754
954.541	58.66448
954.715	35.47754
954.889	46.01671
955.062	79.74592
955.236	31.26204
955.41	50.23254
955.583	52.34049
955.757	71.31307
955.93	5.97099
956.104	27.04663
956.278	-17.20943
956.451	29.15432
956.625	5.97099
956.798	22.83131
956.972	-61.45468
957.145	64.98867
957.319	20.72369
957.492	-31.95906
957.665	27.04663
957.839	94.50427
958.012	54.44846
958.185	73.42125
958.359	-44.60065
958.532	46.01671
958.705	-27.74501
958.879	35.47754
959.052	-15.10224
959.225	96.6127
959.398	33.36978
959.572	83.96248
959.745	-4.56592
959.918	1.75615
960.091	29.15432
960.264	10.18593
960.438	56.55646
960.611	77.63768
960.784	56.55646
960.957	35.47754
961.13	81.85419
961.303	69.20492
961.476	-23.53085
961.649	81.85419
961.822	35.47754
961.995	-12.99502
962.168	22.83131
962.341	3.86356
962.514	60.77252
962.686	-4.56592
962.859	-69.8811
963.032	62.88058
963.205	5.97099
963.378	-0.35123
963.551	52.34049
963.723	12.29343
963.896	-29.85205
964.069	12.29343
964.242	41.80097
964.414	8.07845
964.587	-12.99502
964.76	48.12461
964.932	52.34049
965.105	-15.10224
965.278	37.58533
965.45	24.93896
965.623	46.01671
965.795	-40.38689
965.968	24.93896
966.14	60.77252
966.313	43.90883
966.485	10.18593
966.658	10.18593
966.83	-55.13461
967.003	18.61609
967.175	52.34049
967.348	31.26204
967.52	77.63768
967.692	10.18593
967.865	1.75615
968.037	22.83131
968.209	54.44846
968.382	-15.10224
968.554	-6.67324
968.726	-12.99502
968.898	67.09678
969.071	-15.10224
969.243	31.26204
969.415	71.31307
969.587	-40.38689
969.759	5.97099
969.932	27.04663
970.104	115.58952
970.276	-76.20064
970.448	-6.67324
970.62	3.86356
970.792	43.90883
970.964	46.01671
971.136	14.40096
971.308	-15.10224
971.48	64.98867
971.652	14.40096
971.824	27.04663
971.996	37.58533
972.168	-10.88778
972.339	-2.45859
972.511	-4.56592
972.683	29.15432
972.855	-10.88778
973.027	-21.42373
973.199	73.42125
973.37	-4.56592
973.542	1.75615
973.714	-23.53085
973.886	54.44846
974.057	-65.66794
974.229	10.18593
974.401	83.96248
974.572	18.61609
974.744	31.26204
974.915	3.86356
975.087	60.77252
975.259	31.26204
975.43	5.97099
975.602	-8.78052
975.773	8.07845
975.945	88.17913
976.116	62.88058
976.288	69.20492
976.459	54.44846
976.63	10.18593
976.802	-12.99502
976.973	-8.78052
977.145	79.74592
977.316	56.55646
977.487	48.12461
977.659	31.26204
977.83	-40.38689
978.001	-23.53085
978.172	-21.42373
978.344	3.86356
978.515	22.83131
978.686	5.97099
978.857	22.83131
979.028	-46.70749
979.2	43.90883
979.371	-36.17303
979.542	-21.42373
979.713	-4.56592
979.884	-6.67324
980.055	-61.45468
980.226	43.90883
980.397	-48.81431
980.568	39.69314
980.739	18.61609
980.91	43.90883
981.081	10.18593
981.252	60.77252
981.423	20.72369
981.594	24.93896
981.765	-40.38689
981.936	50.23254
982.106	-4.56592
982.277	43.90883
982.448	-82.51994
982.619	-23.53085
982.79	-6.67324
982.96	35.47754
983.131	12.29343
983.302	10.18593
983.472	27.04663
983.643	48.12461
983.814	-71.98763
983.984	-4.56592
984.155	10.18593
984.326	10.18593
984.496	-8.78052
984.667	27.04663
984.837	1.75615
985.008	10.18593
985.178	-12.99502
985.349	10.18593
985.519	10.18593
985.69	27.04663
985.86	-15.10224
986.031	37.58533
986.201	27.04663
986.371	27.04663
986.542	-6.67324
986.712	-78.3071
986.882	-12.99502
987.053	48.12461
987.223	-10.88778
987.393	35.47754
987.563	18.61609
987.734	-19.31659
987.904	-19.31659
988.074	43.90883
988.244	-6.67324
988.414	-19.31659
988.585	10.18593
988.755	-10.88778
988.925	12.29343
989.095	94.50427
989.265	-29.85205
989.435	20.72369
989.605	-15.10224
989.775	-90.94533
989.945	10.18593
990.115	27.04663
990.285	-0.35123
990.455	18.61609
990.625	-29.85205
990.795	50.23254
990.965	12.29343
991.134	-34.06606
991.304	27.04663
991.474	-15.10224
991.644	-8.78052
991.814	-23.53085
991.984	29.15432
992.153	71.31307
992.323	-36.17303
992.493	10.18593
992.662	-29.85205
992.832	3.86356
993.002	-27.74501
993.171	-2.45859
993.341	121.91552
993.511	-6.67324
993.68	31.26204
993.85	27.04663
994.019	27.04663
994.189	12.29343
994.358	18.61609
994.528	27.04663
994.697	-4.56592
994.867	-31.95906
995.036	1.75615
995.206	-44.60065
995.375	-31.95906
995.544	-6.67324
995.714	77.63768
995.883	-2.45859
996.052	12.29343
996.222	-6.67324
996.391	-6.67324
996.56	33.36978
996.73	-31.95906
996.899	-17.20943
997.068	-23.53085
997.237	-10.88778
997.406	-31.95906
997.576	39.69314
997.745	86.0708
997.914	39.69314
998.083	35.47754
998.252	50.23254
998.421	71.31307
998.59	46.01671
998.759	43.90883
998.928	-10.88778
999.097	41.80097
999.266	20.72369
999.435	69.20492
999.604	52.34049
999.773	-31.95906
999.942	69.20492
1000.111	-15.10224
1000.28	-38.27997
1000.448	52.34049
1000.617	56.55646
1000.786	33.36978
1000.955	22.83131
1001.124	1.75615
1001.292	20.72369
1001.461	-63.56133
1001.63	56.55646
1001.798	43.90883
1001.967	-44.60065
1002.136	35.47754
1002.304	16.50851
1002.473	-65.66794
1002.642	-29.85205
1002.81	27.04663
1002.979	27.04663
1003.147	-27.74501
1003.316	33.36978
1003.484	-38.27997
1003.653	56.55646
1003.821	-21.42373
1003.99	-48.81431
1004.158	-19.31659
1004.327	-65.66794
1004.495	1.75615
1004.663	39.69314
1004.832	-19.31659
1005	31.26204
1005.168	18.61609
1005.337	10.18593
1005.505	-12.99502
1005.673	27.04663
1005.842	-15.10224
1006.01	5.97099
1006.178	67.09678
1006.346	-23.53085
1006.514	-36.17303
1006.683	-38.27997
1006.851	33.36978
1007.019	35.47754
1007.187	-42.49378
1007.355	8.07845
1007.523	18.61609
1007.691	88.17913
1007.859	14.40096
1008.027	3.86356
1008.195	37.58533
1008.363	-95.15786
1008.531	-31.95906
1008.699	20.72369
1008.867	8.07845
1009.035	88.17913
1009.203	46.01671
1009.37	18.61609
1009.538	22.83131
1009.706	54.44846
1009.874	54.44846
1010.042	60.77252
1010.209	1.75615
1010.377	18.61609
1010.545	-55.13461
1010.713	14.40096
1010.88	-38.27997
1011.048	46.01671
1011.216	-23.53085
1011.383	-19.31659
1011.551	77.63768
1011.718	8.07845
1011.886	31.26204
1012.054	39.69314
1012.221	-6.67324
1012.389	105.04662
1012.556	54.44846
1012.724	27.04663
1012.891	3.86356
1013.058	-4.56592
1013.226	3.86356
1013.393	-25.63794
1013.561	-42.49378
1013.728	5.97099
1013.895	60.77252
1014.063	10.18593
1014.23	22.83131
1014.397	-46.70749
1014.565	1.75615
1014.732	29.15432
1014.899	-12.99502
1015.066	14.40096
1015.233	-12.99502
1015.401	-19.31659
1015.568	46.01671
1015.735	1.75615
1015.902	-23.53085
1016.069	-15.10224
1016.236	14.40096
1016.403	-21.42373
1016.57	69.20492
1016.737	-15.10224
1016.904	12.29343
1017.071	-36.17303
1017.238	29.15432
1017.405	-23.53085
1017.572	-10.88778
1017.739	-0.35123
1017.906	52.34049
1018.073	-61.45468
1018.24	-25.63794
1018.407	-15.10224
1018.573	52.34049
1018.74	10.18593
1018.907	-34.06606
1019.074	-0.35123
1019.241	27.04663
1019.407	-31.95906
1019.574	27.04663
1019.741	-27.74501
1019.907	1.75615
1020.074	64.98867
1020.241	75.52945
1020.407	27.04663
1020.574	20.72369
1020.74	100.82962
1020.907	18.61609
1021.073	-12.99502
1021.24	-71.98763
1021.406	-31.95906
1021.573	20.72369
1021.739	22.83131
1021.906	69.20492
1022.072	18.61609
1022.239	-4.56592
1022.405	29.15432
1022.571	-53.02787
1022.738	-23.53085
1022.904	73.42125
1023.07	-40.38689
1023.237	-61.45468
1023.403	-23.53085
1023.569	67.09678
1023.735	-10.88778
1023.902	-50.9211
1024.068	-36.17303
1024.234	14.40096
1024.4	-4.56592
1024.566	-53.02787
1024.732	-19.31659
1024.898	-15.10224
1025.065	77.63768
1025.231	14.40096
1025.397	20.72369
1025.563	41.80097
1025.729	50.23254
1025.895	43.90883
1026.061	46.01671
1026.227	18.61609
1026.392	-2.45859
1026.558	1.75615
1026.724	79.74592
1026.89	18.61609
1027.056	-53.02787
1027.222	-15.10224
1027.388	29.15432
1027.553	35.47754
1027.719	31.26204
1027.885	3.86356
1028.051	14.40096
1028.216	-23.53085
1028.382	16.50851
1028.548	-2.45859
1028.713	22.83131
1028.879	58.66448
1029.045	-31.95906
1029.21	-2.45859
1029.376	35.47754
1029.541	35.47754
1029.707	14.40096
1029.873	24.93896
1030.038	5.97099
1030.204	-10.88778
1030.369	39.69314
1030.534	-80.41353
1030.7	71.31307
1030.865	-6.67324
1031.031	-17.20943
1031.196	35.47754
1031.361	-2.45859
1031.527	-10.88778
1031.692	46.01671
1031.857	-31.95906
1032.023	-6.67324
1032.188	-4.56592
1032.353	46.01671
1032.518	31.26204
1032.684	-4.56592
1032.849	35.47754
1033.014	18.61609
1033.179	22.83131
1033.344	-10.88778
1033.509	29.15432
1033.674	35.47754
1033.839	-36.17303
1034.004	35.47754
1034.17	12.29343
1034.335	14.40096
1034.5	-6.67324
1034.664	-21.42373
1034.829	-36.17303
1034.994	-55.13461
1035.159	-55.13461
1035.324	-15.10224
1035.489	-23.53085
1035.654	-74.09415
1035.819	-15.10224
1035.984	8.07845
1036.148	18.61609
1036.313	-6.67324
1036.478	14.40096
1036.643	-10.88778
1036.807	1.75615
1036.972	-48.81431
1037.137	-23.53085
1037.301	-25.63794
1037.466	-31.95906
1037.631	-15.10224
1037.795	39.69314
1037.96	22.83131
1038.124	35.47754
1038.289	3.86356
1038.454	-27.74501
1038.618	-23.53085
1038.783	52.34049
1038.947	31.26204
1039.111	-15.10224
1039.276	-21.42373
1039.44	1.75615
1039.605	-10.88778
1039.769	-38.27997
1039.933	46.01671
1040.098	-12.99502
1040.262	-50.9211
1040.426	-36.17303
1040.591	27.04663
1040.755	86.0708
1040.919	22.83131
1041.083	27.04663
1041.248	31.26204
1041.412	-19.31659
1041.576	-50.9211
1041.74	-65.66794
1041.904	-12.99502
1042.068	-23.53085
1042.232	69.20492
1042.397	-6.67324
1042.561	-55.13461
1042.725	-29.85205
1042.889	69.20492
1043.053	35.47754
1043.217	-27.74501
1043.381	3.86356
1043.544	33.36978
1043.708	-63.56133
1043.872	31.26204
1044.036	39.69314
1044.2	62.88058
1044.364	-36.17303
1044.528	12.29343
1044.691	-10.88778
1044.855	-55.13461
1045.019	24.93896
1045.183	-6.67324
1045.346	-38.27997
1045.51	-0.35123
1045.674	-17.20943
1045.837	12.29343
1046.001	41.80097
1046.165	-36.17303
1046.328	22.83131
1046.492	43.90883
1046.655	60.77252
1046.819	-6.67324
1046.983	-15.10224
1047.146	18.61609
1047.31	-2.45859
1047.473	-59.34802
1047.636	-27.74501
1047.8	-2.45859
1047.963	71.31307
1048.127	-19.31659
1048.29	-40.38689
