Data from mixed_try1_USB4F045381__8__00156.txt Node

Date: Thu Apr 03 20:07:54 EDT 2025
User: mmckonesweet
Spectrometer: USB4F04538
Trigger mode: 4
Integration Time (sec): 2.700000E-3
Scans to average: 1
Electric dark correction enabled: true
Nonlinearity correction enabled: true
Boxcar width: 0
XAxis mode: Wavelengths
Number of Pixels in Spectrum: 3648
>>>>>Begin Spectral Data<<<<<
345.52	-68.30117
345.736	-68.30117
345.952	-68.30117
346.168	15.98162
346.384	-0.87807
346.6	64.46165
346.816	-43.0205
347.032	34.9506
347.248	-7.20006
347.464	13.87408
347.68	-21.95051
347.896	-15.62904
348.112	13.87408
348.328	-11.4146
348.544	-17.73622
348.76	-0.87807
348.975	-9.30734
349.191	5.44413
349.407	-0.87807
349.623	-40.91361
349.839	30.7351
350.055	43.38186
350.27	24.41204
350.486	1.22931
350.702	28.62739
350.918	66.56975
351.133	-19.84338
351.349	-85.15292
351.565	3.33671
351.781	-30.3788
351.996	-7.20006
352.212	-53.55456
352.428	43.38186
352.644	7.55158
352.859	87.65205
353.075	-36.69976
353.291	-26.16471
353.506	49.70556
353.722	-7.20006
353.938	-9.30734
354.153	-51.44779
354.369	-89.3656
354.584	26.51971
354.8	-5.09275
355.016	-76.72725
355.231	-21.95051
355.447	-5.09275
355.662	1.22931
355.878	-34.5928
356.093	-13.52183
356.309	66.56975
356.524	7.55158
356.74	-13.52183
356.955	-93.57817
357.171	15.98162
357.386	34.9506
357.602	28.62739
357.817	5.44413
358.033	-9.30734
358.248	58.13747
358.464	11.76656
358.679	7.55158
358.895	15.98162
359.11	-51.44779
359.325	37.05838
359.541	30.7351
359.756	-7.20006
359.972	-13.52183
360.187	-80.94014
360.402	-80.94014
360.618	-34.5928
360.833	-32.48582
361.048	15.98162
361.264	45.48974
361.479	-9.30734
361.694	9.65906
361.909	-57.768
362.125	18.08919
362.34	-17.73622
362.555	37.05838
362.77	-0.87807
362.986	-43.0205
363.201	41.27401
363.416	-51.44779
363.631	34.9506
363.847	20.19678
364.062	-66.19459
364.277	-51.44779
364.492	28.62739
364.707	-68.30117
364.922	-30.3788
365.138	32.84284
365.353	1.22931
365.568	79.21886
365.783	-26.16471
365.998	1.22931
366.213	-15.62904
366.428	-2.98542
366.643	-9.30734
366.858	-51.44779
367.073	3.33671
367.288	-9.30734
367.503	7.55158
367.718	11.76656
367.933	-24.05762
368.148	-13.52183
368.363	-21.95051
368.578	-9.30734
368.793	-51.44779
369.008	-17.73622
369.223	18.08919
369.438	-24.05762
369.653	24.41204
369.868	7.55158
370.083	20.19678
370.298	28.62739
370.513	24.41204
370.728	24.41204
370.943	32.84284
371.157	-36.69976
371.372	11.76656
371.587	32.84284
371.802	-38.8067
372.017	7.55158
372.232	24.41204
372.446	-21.95051
372.661	-36.69976
372.876	7.55158
373.091	64.46165
373.306	-9.30734
373.52	15.98162
373.735	-110.42743
373.95	-9.30734
374.165	-55.66129
374.379	15.98162
374.594	18.08919
374.809	-7.20006
375.023	-43.0205
375.238	24.41204
375.453	-11.4146
375.667	26.51971
375.882	-68.30117
376.097	72.8942
376.311	-32.48582
376.526	-43.0205
376.741	-49.34101
376.955	1.22931
377.17	49.70556
377.384	1.22931
377.599	49.70556
377.813	-0.87807
378.028	24.41204
378.242	-55.66129
378.457	-34.5928
378.672	7.55158
378.886	70.78603
379.101	-21.95051
379.315	-87.25927
379.53	3.33671
379.744	-89.3656
379.958	7.55158
380.173	34.9506
380.387	-5.09275
380.602	70.78603
380.816	-19.84338
381.031	-15.62904
381.245	53.92147
381.459	39.16618
381.674	1.22931
381.888	66.56975
382.103	-9.30734
382.317	-11.4146
382.531	22.3044
382.746	43.38186
382.96	-40.91361
383.174	-34.5928
383.388	53.92147
383.603	-47.2342
383.817	1.22931
384.031	26.51971
384.246	-24.05762
384.46	-76.72725
384.674	-11.4146
384.888	7.55158
385.103	-17.73622
385.317	-32.48582
385.531	-36.69976
385.745	7.55158
385.959	-24.05762
386.174	-17.73622
386.388	20.19678
386.602	39.16618
386.816	75.0024
387.03	-38.8067
387.244	-0.87807
387.458	37.05838
387.672	-43.0205
387.887	37.05838
388.101	47.59764
388.315	-17.73622
388.529	7.55158
388.743	-5.09275
388.957	26.51971
389.171	58.13747
389.385	-47.2342
389.599	-47.2342
389.813	-9.30734
390.027	26.51971
390.241	-43.0205
390.455	49.70556
390.669	7.55158
390.883	28.62739
391.097	9.65906
391.311	-36.69976
391.525	83.43541
391.738	43.38186
391.952	58.13747
392.166	1.22931
392.38	70.78603
392.594	-76.72725
392.808	-59.87469
393.022	-7.20006
393.236	24.41204
393.449	11.76656
393.663	-30.3788
393.877	47.59764
394.091	-30.3788
394.305	47.59764
394.518	-72.51427
394.732	-64.08798
394.946	-68.30117
395.16	-11.4146
395.373	11.76656
395.587	-17.73622
395.801	24.41204
396.015	-55.66129
396.228	26.51971
396.442	43.38186
396.656	15.98162
396.869	43.38186
397.083	49.70556
397.297	26.51971
397.51	-7.20006
397.724	-0.87807
397.938	24.41204
398.151	-0.87807
398.365	-40.91361
398.578	-26.16471
398.792	5.44413
399.005	7.55158
399.219	-24.05762
399.433	-40.91361
399.646	-43.0205
399.86	-43.0205
400.073	-26.16471
400.287	-40.91361
400.5	-85.15292
400.714	-15.62904
400.927	-7.20006
401.141	5.44413
401.354	24.41204
401.567	72.8942
401.781	26.51971
401.994	-17.73622
402.208	-47.2342
402.421	26.51971
402.635	-5.09275
402.848	28.62739
403.061	-17.73622
403.275	9.65906
403.488	24.41204
403.701	22.3044
403.915	-51.44779
404.128	-15.62904
404.341	1.22931
404.555	-15.62904
404.768	1.22931
404.981	77.11062
405.195	-36.69976
405.408	-5.09275
405.621	7.55158
405.834	41.27401
406.048	-9.30734
406.261	-19.84338
406.474	7.55158
406.687	-51.44779
406.9	-80.94014
407.114	-76.72725
407.327	28.62739
407.54	-21.95051
407.753	28.62739
407.966	-26.16471
408.179	-78.83371
408.392	41.27401
408.605	1.22931
408.819	-55.66129
409.032	15.98162
409.245	24.41204
409.458	-38.8067
409.671	-0.87807
409.884	-17.73622
410.097	7.55158
410.31	-17.73622
410.523	-49.34101
410.736	9.65906
410.949	-74.62077
411.162	51.8135
411.375	-53.55456
411.588	-13.52183
411.801	-32.48582
412.014	-43.0205
412.227	-36.69976
412.44	47.59764
412.653	41.27401
412.865	9.65906
413.078	-118.85142
413.291	-34.5928
413.504	3.33671
413.717	-13.52183
413.93	41.27401
414.143	-64.08798
414.356	-40.91361
414.568	-7.20006
414.781	-26.16471
414.994	-19.84338
415.207	3.33671
415.42	89.7604
415.632	49.70556
415.845	-19.84338
416.058	-43.0205
416.271	28.62739
416.483	-83.04654
416.696	-9.30734
416.909	-15.62904
417.121	-26.16471
417.334	32.84284
417.547	1.22931
417.759	-9.30734
417.972	-15.62904
418.185	11.76656
418.397	-24.05762
418.61	-102.00301
418.823	-57.768
419.035	-15.62904
419.248	-28.27177
419.46	-17.73622
419.673	-34.5928
419.885	7.55158
420.098	60.24551
420.311	72.8942
420.523	-43.0205
420.736	-36.69976
420.948	72.8942
421.161	11.76656
421.373	-17.73622
421.586	-21.95051
421.798	-24.05762
422.01	-15.62904
422.223	34.9506
422.435	-9.30734
422.648	-24.05762
422.86	15.98162
423.073	127.71452
423.285	-0.87807
423.497	-59.87469
423.71	1.22931
423.922	-34.5928
424.134	-24.05762
424.347	20.19678
424.559	58.13747
424.771	41.27401
424.984	18.08919
425.196	-15.62904
425.408	-0.87807
425.621	-26.16471
425.833	-30.3788
426.045	3.33671
426.257	5.44413
426.47	-47.2342
426.682	-9.30734
426.894	20.19678
427.106	9.65906
427.318	39.16618
427.531	-13.52183
427.743	58.13747
427.955	-61.98135
428.167	-13.52183
428.379	-43.0205
428.591	3.33671
428.804	60.24551
429.016	7.55158
429.228	13.87408
429.44	-32.48582
429.652	5.44413
429.864	-0.87807
430.076	5.44413
430.288	7.55158
430.5	-9.30734
430.712	-70.40773
430.924	45.48974
431.136	11.76656
431.348	3.33671
431.56	34.9506
431.772	3.33671
431.984	34.9506
432.196	9.65906
432.408	58.13747
432.62	-28.27177
432.832	3.33671
433.044	-21.95051
433.256	-5.09275
433.468	-32.48582
433.679	-51.44779
433.891	-26.16471
434.103	49.70556
434.315	11.76656
434.527	68.67788
434.739	-0.87807
434.95	15.98162
435.162	15.98162
435.374	-13.52183
435.586	-36.69976
435.798	3.33671
436.009	-47.2342
436.221	-15.62904
436.433	11.76656
436.645	32.84284
436.856	49.70556
437.068	41.27401
437.28	-21.95051
437.491	34.9506
437.703	-9.30734
437.915	-11.4146
438.126	-5.09275
438.338	-43.0205
438.55	15.98162
438.761	56.02946
438.973	24.41204
439.184	1.22931
439.396	47.59764
439.608	-7.20006
439.819	-7.20006
440.031	26.51971
440.242	51.8135
440.454	-15.62904
440.665	-0.87807
440.877	-0.87807
441.088	-13.52183
441.3	-13.52183
441.511	-5.09275
441.723	-13.52183
441.934	-9.30734
442.146	32.84284
442.357	-7.20006
442.569	-17.73622
442.78	15.98162
442.991	32.84284
443.203	45.48974
443.414	-15.62904
443.626	-26.16471
443.837	1.22931
444.048	-36.69976
444.26	-40.91361
444.471	30.7351
444.682	43.38186
444.894	-47.2342
445.105	-17.73622
445.316	1.22931
445.528	-7.20006
445.739	-13.52183
445.95	-9.30734
446.161	7.55158
446.373	49.70556
446.584	32.84284
446.795	-5.09275
447.006	-0.87807
447.217	79.21886
447.429	-34.5928
447.64	58.13747
447.851	-9.30734
448.062	-24.05762
448.273	11.76656
448.484	-24.05762
448.695	62.35357
448.907	-76.72725
449.118	-47.2342
449.329	28.62739
449.54	-26.16471
449.751	-15.62904
449.962	79.21886
450.173	-24.05762
450.384	9.65906
450.595	7.55158
450.806	24.41204
451.017	34.9506
451.228	15.98162
451.439	22.3044
451.65	-59.87469
451.861	49.70556
452.072	-0.87807
452.283	37.05838
452.494	7.55158
452.705	60.24551
452.915	-9.30734
453.126	-30.3788
453.337	43.38186
453.548	3.33671
453.759	3.33671
453.97	-0.87807
454.181	22.3044
454.391	-34.5928
454.602	-2.98542
454.813	-0.87807
455.024	15.98162
455.235	-0.87807
455.445	-51.44779
455.656	58.13747
455.867	24.41204
456.078	-30.3788
456.288	24.41204
456.499	-47.2342
456.71	-83.04654
456.921	-0.87807
457.131	-40.91361
457.342	-2.98542
457.553	13.87408
457.763	20.19678
457.974	72.8942
458.184	53.92147
458.395	-0.87807
458.606	-17.73622
458.816	-47.2342
459.027	-2.98542
459.237	41.27401
459.448	-21.95051
459.659	41.27401
459.869	34.9506
460.08	3.33671
460.29	100.3025
460.501	-5.09275
460.711	-26.16471
460.922	-15.62904
461.132	34.9506
461.343	-17.73622
461.553	-17.73622
461.764	28.62739
461.974	7.55158
462.184	26.51971
462.395	28.62739
462.605	7.55158
462.816	26.51971
463.026	-17.73622
463.236	32.84284
463.447	7.55158
463.657	-26.16471
463.867	41.27401
464.078	-72.51427
464.288	-17.73622
464.498	-38.8067
464.709	13.87408
464.919	85.54372
465.129	-40.91361
465.339	49.70556
465.55	9.65906
465.76	37.05838
465.97	79.21886
466.18	-15.62904
466.391	11.76656
466.601	-9.30734
466.811	53.92147
467.021	-15.62904
467.231	24.41204
467.441	-0.87807
467.651	68.67788
467.862	1.22931
468.072	-30.3788
468.282	41.27401
468.492	-17.73622
468.702	7.55158
468.912	83.43541
469.122	-9.30734
469.332	-55.66129
469.542	7.55158
469.752	-72.51427
469.962	-21.95051
470.172	3.33671
470.382	-49.34101
470.592	-26.16471
470.802	3.33671
471.012	-24.05762
471.222	34.9506
471.432	30.7351
471.642	-28.27177
471.852	-51.44779
472.062	32.84284
472.272	53.92147
472.482	7.55158
472.691	49.70556
472.901	-24.05762
473.111	18.08919
473.321	-21.95051
473.531	-7.20006
473.741	-64.08798
473.95	18.08919
474.16	-26.16471
474.37	41.27401
474.58	-47.2342
474.79	22.3044
474.999	60.24551
475.209	3.33671
475.419	75.0024
475.628	28.62739
475.838	47.59764
476.048	-38.8067
476.258	62.35357
476.467	1.22931
476.677	60.24551
476.886	-26.16471
477.096	-7.20006
477.306	-38.8067
477.515	15.98162
477.725	20.19678
477.935	-17.73622
478.144	-43.0205
478.354	-24.05762
478.563	-26.16471
478.773	-9.30734
478.982	3.33671
479.192	-32.48582
479.401	11.76656
479.611	-0.87807
479.82	3.33671
480.03	-9.30734
480.239	45.48974
480.449	-26.16471
480.658	-5.09275
480.868	22.3044
481.077	-9.30734
481.287	72.8942
481.496	13.87408
481.705	87.65205
481.915	32.84284
482.124	11.76656
482.333	20.19678
482.543	-34.5928
482.752	-7.20006
482.961	24.41204
483.171	75.0024
483.38	-40.91361
483.589	7.55158
483.799	-9.30734
484.008	-9.30734
484.217	20.19678
484.426	43.38186
484.636	51.8135
484.845	45.48974
485.054	15.98162
485.263	18.08919
485.472	-17.73622
485.682	-9.30734
485.891	-0.87807
486.1	-80.94014
486.309	13.87408
486.518	-2.98542
486.727	-55.66129
486.936	-2.98542
487.146	60.24551
487.355	32.84284
487.564	41.27401
487.773	-24.05762
487.982	-51.44779
488.191	-26.16471
488.4	-7.20006
488.609	-83.04654
488.818	-13.52183
489.027	-17.73622
489.236	49.70556
489.445	98.19403
489.654	-30.3788
489.863	49.70556
490.072	-34.5928
490.281	-30.3788
490.49	9.65906
490.698	-5.09275
490.907	28.62739
491.116	18.08919
491.325	-19.84338
491.534	60.24551
491.743	-7.20006
491.952	-61.98135
492.16	3.33671
492.369	3.33671
492.578	-59.87469
492.787	-26.16471
492.996	81.32712
493.204	-24.05762
493.413	49.70556
493.622	-24.05762
493.831	-34.5928
494.039	-32.48582
494.248	-13.52183
494.457	-51.44779
494.665	51.8135
494.874	45.48974
495.083	58.13747
495.291	-17.73622
495.5	20.19678
495.709	-9.30734
495.917	45.48974
496.126	7.55158
496.335	49.70556
496.543	37.05838
496.752	-59.87469
496.96	-0.87807
497.169	-55.66129
497.377	-32.48582
497.586	-21.95051
497.794	7.55158
498.003	43.38186
498.211	-17.73622
498.42	1.22931
498.628	53.92147
498.837	53.92147
499.045	-83.04654
499.254	43.38186
499.462	5.44413
499.671	1.22931
499.879	-0.87807
500.087	-11.4146
500.296	37.05838
500.504	47.59764
500.713	18.08919
500.921	-0.87807
501.129	-13.52183
501.338	49.70556
501.546	20.19678
501.754	60.24551
501.962	77.11062
502.171	-9.30734
502.379	-13.52183
502.587	28.62739
502.795	51.8135
503.004	-26.16471
503.212	30.7351
503.42	75.0024
503.628	-7.20006
503.837	58.13747
504.045	-0.87807
504.253	32.84284
504.461	85.54372
504.669	24.41204
504.877	24.41204
505.085	-40.91361
505.294	-21.95051
505.502	1.22931
505.71	-55.66129
505.918	26.51971
506.126	66.56975
506.334	53.92147
506.542	32.84284
506.75	-38.8067
506.958	-21.95051
507.166	-30.3788
507.374	30.7351
507.582	30.7351
507.79	79.21886
507.998	79.21886
508.206	60.24551
508.414	28.62739
508.622	37.05838
508.83	43.38186
509.037	102.41098
509.245	24.41204
509.453	15.98162
509.661	58.13747
509.869	-9.30734
510.077	37.05838
510.285	15.98162
510.492	62.35357
510.7	24.41204
510.908	9.65906
511.116	11.76656
511.324	-43.0205
511.531	49.70556
511.739	58.13747
511.947	7.55158
512.155	34.9506
512.362	66.56975
512.57	51.8135
512.778	1.22931
512.985	20.19678
513.193	-0.87807
513.401	66.56975
513.608	26.51971
513.816	93.97717
514.024	26.51971
514.231	37.05838
514.439	11.76656
514.646	53.92147
514.854	7.55158
515.061	66.56975
515.269	75.0024
515.477	11.76656
515.684	7.55158
515.892	64.46165
516.099	51.8135
516.307	34.9506
516.514	-5.09275
516.722	15.98162
516.929	100.3025
517.136	32.84284
517.344	18.08919
517.551	26.51971
517.759	-17.73622
517.966	41.27401
518.173	18.08919
518.381	51.8135
518.588	24.41204
518.796	24.41204
519.003	26.51971
519.21	66.56975
519.418	-43.0205
519.625	-0.87807
519.832	60.24551
520.039	49.70556
520.247	53.92147
520.454	20.19678
520.661	-17.73622
520.868	64.46165
521.076	-32.48582
521.283	-0.87807
521.49	5.44413
521.697	58.13747
521.904	43.38186
522.112	53.92147
522.319	49.70556
522.526	68.67788
522.733	20.19678
522.94	47.59764
523.147	-9.30734
523.354	41.27401
523.561	3.33671
523.768	11.76656
523.975	-15.62904
524.183	-5.09275
524.39	85.54372
524.597	11.76656
524.804	20.19678
525.011	20.19678
525.218	43.38186
525.425	34.9506
525.632	28.62739
525.838	45.48974
526.045	77.11062
526.252	34.9506
526.459	28.62739
526.666	43.38186
526.873	43.38186
527.08	1.22931
527.287	37.05838
527.494	87.65205
527.701	11.76656
527.907	110.84515
528.114	3.33671
528.321	85.54372
528.528	32.84284
528.735	26.51971
528.941	-32.48582
529.148	45.48974
529.355	-43.0205
529.562	134.0409
529.768	-34.5928
529.975	28.62739
530.182	81.32712
530.388	-38.8067
530.595	56.02946
530.802	32.84284
531.008	58.13747
531.215	28.62739
531.422	66.56975
531.628	85.54372
531.835	3.33671
532.042	-36.69976
532.248	66.56975
532.455	62.35357
532.661	11.76656
532.868	18.08919
533.074	66.56975
533.281	-43.0205
533.487	51.8135
533.694	-21.95051
533.9	-17.73622
534.107	49.70556
534.313	3.33671
534.52	51.8135
534.726	28.62739
534.933	49.70556
535.139	91.86877
535.345	112.95374
535.552	-2.98542
535.758	37.05838
535.965	51.8135
536.171	58.13747
536.377	39.16618
536.584	93.97717
536.79	49.70556
536.996	68.67788
537.203	-26.16471
537.409	26.51971
537.615	60.24551
537.821	87.65205
538.028	89.7604
538.234	77.11062
538.44	108.73657
538.646	85.54372
538.853	-2.98542
539.059	117.171
539.265	51.8135
539.471	60.24551
539.677	79.21886
539.883	60.24551
540.09	83.43541
540.296	62.35357
540.502	13.87408
540.708	83.43541
540.914	91.86877
541.12	91.86877
541.326	110.84515
541.532	53.92147
541.738	87.65205
541.944	26.51971
542.15	51.8135
542.356	49.70556
542.562	100.3025
542.768	47.59764
542.974	56.02946
543.18	81.32712
543.386	100.3025
543.592	37.05838
543.798	121.38835
544.004	102.41098
544.21	91.86877
544.415	110.84515
544.621	110.84515
544.827	26.51971
545.033	60.24551
545.239	45.48974
545.445	5.44413
545.651	51.8135
545.856	45.48974
546.062	75.0024
546.268	79.21886
546.474	98.19403
546.679	28.62739
546.885	83.43541
547.091	68.67788
547.297	100.3025
547.502	75.0024
547.708	15.98162
547.914	3.33671
548.119	20.19678
548.325	138.25859
548.531	91.86877
548.736	66.56975
548.942	58.13747
549.147	115.06236
549.353	30.7351
549.559	15.98162
549.764	79.21886
549.97	100.3025
550.175	87.65205
550.381	62.35357
550.586	102.41098
550.792	180.44012
550.997	37.05838
551.203	75.0024
551.408	100.3025
551.614	89.7604
551.819	144.58528
552.025	117.171
552.23	51.8135
552.435	79.21886
552.641	43.38186
552.846	68.67788
553.052	91.86877
553.257	108.73657
553.462	45.48974
553.668	26.51971
553.873	93.97717
554.078	75.0024
554.283	41.27401
554.489	112.95374
554.694	184.65873
554.899	98.19403
555.105	102.41098
555.31	87.65205
555.515	62.35357
555.72	125.60578
555.925	134.0409
556.131	142.47636
556.336	136.14973
556.541	85.54372
556.746	159.34831
556.951	47.59764
557.156	108.73657
557.361	117.171
557.567	87.65205
557.772	68.67788
557.977	127.71452
558.182	193.0962
558.387	123.49705
558.592	93.97717
558.797	66.56975
559.002	70.78603
559.207	112.95374
559.412	125.60578
559.617	142.47636
559.822	125.60578
560.027	100.3025
560.232	93.97717
560.437	226.84928
560.642	104.51949
560.847	117.171
561.051	110.84515
561.256	144.58528
561.461	165.67563
561.666	134.0409
561.871	193.0962
562.076	148.80318
562.281	138.25859
562.485	87.65205
562.69	163.5665
562.895	138.25859
563.1	190.9868
563.305	134.0409
563.509	117.171
563.714	131.93208
563.919	83.43541
564.123	150.91217
564.328	142.47636
564.533	58.13747
564.737	112.95374
564.942	163.5665
565.147	159.34831
565.351	146.69422
565.556	201.53399
565.761	176.22159
565.965	172.00315
566.17	224.73956
566.374	197.31505
566.579	117.171
566.784	231.06877
566.988	91.86877
567.193	167.78478
567.397	193.0962
567.602	142.47636
567.806	117.171
568.011	180.44012
568.215	144.58528
568.42	108.73657
568.624	157.23924
568.828	190.9868
569.033	260.60738
569.237	266.93757
569.442	148.80318
569.646	172.00315
569.85	207.86254
570.055	176.22159
570.259	134.0409
570.463	159.34831
570.668	150.91217
570.872	142.47636
571.076	144.58528
571.281	188.87742
571.485	209.9721
571.689	205.753
571.893	193.0962
572.098	292.26001
572.302	172.00315
572.506	222.62986
572.71	193.0962
572.914	150.91217
573.119	134.0409
573.323	203.64348
573.527	201.53399
573.731	222.62986
573.935	188.87742
574.139	195.20561
574.343	292.26001
574.547	174.11236
574.751	233.17854
574.955	256.38735
575.159	237.39815
575.364	254.27736
575.568	264.82749
575.772	226.84928
575.976	197.31505
576.18	290.14971
576.383	167.78478
576.587	269.04767
576.791	216.30089
576.995	285.92915
577.199	190.9868
577.403	203.64348
577.607	205.753
577.811	273.26793
578.015	252.16739
578.219	260.60738
578.422	178.33085
578.626	266.93757
578.83	169.89395
579.034	304.92223
579.238	237.39815
579.442	231.06877
579.645	264.82749
579.849	247.94751
580.053	247.94751
580.257	180.44012
580.46	307.03267
580.664	254.27736
580.868	252.16739
581.071	288.03942
581.275	231.06877
581.479	260.60738
581.682	186.76807
581.886	298.59104
582.09	313.36408
582.293	342.91278
582.497	372.4649
582.7	243.72771
582.904	321.80621
583.107	330.24862
583.311	372.4649
583.515	340.80204
583.718	264.82749
583.922	256.38735
584.125	319.69565
584.329	340.80204
584.532	302.81182
584.735	349.24509
584.939	252.16739
585.142	345.02353
585.346	304.92223
585.549	328.13799
585.753	370.35392
585.956	334.46994
586.159	355.57756
586.363	370.35392
586.566	264.82749
586.769	395.68674
586.973	212.08167
587.176	345.02353
587.379	338.69132
587.582	448.471
587.786	247.94751
587.989	353.46672
588.192	296.48068
588.395	338.69132
588.599	307.03267
588.802	412.57661
589.005	416.79924
589.208	465.36403
589.411	370.35392
589.615	423.13331
589.818	359.79929
590.021	467.47573
590.224	366.13202
590.427	321.80621
590.63	448.471
590.833	345.02353
591.036	412.57661
591.239	391.46444
591.442	421.02194
591.645	353.46672
591.848	406.24279
592.051	296.48068
592.254	353.46672
592.457	471.69917
592.66	393.57558
592.863	425.2447
593.066	395.68674
593.269	484.36986
593.472	429.46752
593.675	397.79792
593.878	387.2422
594.081	501.26494
594.284	456.91739
594.486	380.90897
594.689	416.79924
594.892	490.7054
595.095	437.91335
595.298	516.0489
595.5	414.68792
595.703	541.39445
595.906	345.02353
596.109	535.05787
596.311	499.153
596.514	450.58257
596.717	406.24279
596.92	513.93686
597.122	465.36403
597.325	499.153
597.528	425.2447
597.73	463.25235
597.933	399.90911
598.136	537.17005
598.338	465.36403
598.541	581.52897
598.743	461.14068
598.946	516.0489
599.148	440.02485
599.351	551.95569
599.554	547.73116
599.756	463.25235
599.959	513.93686
600.161	556.18028
600.363	573.07919
600.566	484.36986
600.768	611.10482
600.971	699.84686
601.173	581.52897
601.376	642.79598
601.578	560.40493
601.78	602.65432
601.983	615.33015
602.185	577.30405
602.388	467.47573
602.59	611.10482
602.792	562.51727
602.995	649.13455
603.197	507.60084
603.399	564.62963
603.601	549.84342
603.804	632.23195
604.006	509.71283
604.208	630.11918
604.41	573.07919
604.613	632.23195
604.815	556.18028
605.017	577.30405
605.219	549.84342
605.421	678.71592
605.623	532.94571
605.826	615.33015
606.028	594.20402
606.23	649.13455
606.432	617.44283
606.634	750.56559
606.836	509.71283
607.038	699.84686
607.24	577.30405
607.442	706.18636
607.644	594.20402
607.846	661.812
608.048	543.50667
608.25	737.88533
608.452	653.36032
608.654	775.92721
608.856	613.21748
609.058	693.50746
609.26	674.48987
609.462	632.23195
609.664	568.85439
609.866	666.03791
610.067	598.42915
610.269	647.02168
610.471	634.34474
610.673	676.60289
610.875	617.44283
611.077	750.56559
611.278	710.41275
611.48	775.92721
611.682	670.26386
611.884	775.92721
612.085	606.87955
612.287	592.09148
612.489	718.86566
612.69	727.31874
612.892	649.13455
613.094	805.51757
613.295	661.812
613.497	792.83576
613.699	695.62058
613.9	782.26784
614.102	767.47318
614.304	767.47318
614.505	672.37686
614.707	803.40391
614.908	716.75241
615.11	687.16816
615.311	682.94202
615.513	841.45119
615.714	653.36032
615.916	881.6153
616.117	619.55552
616.319	767.47318
616.52	784.38141
616.722	849.90653
616.923	771.70018
617.124	868.93157
617.326	786.49498
617.527	822.42718
617.729	725.20545
617.93	835.10977
618.131	687.16816
618.333	733.65866
618.534	839.33737
618.735	835.10977
618.937	775.92721
619.138	974.63792
619.339	742.11204
619.54	877.38736
619.742	784.38141
619.943	794.94937
620.144	786.49498
620.345	822.42718
620.546	778.04075
620.748	964.06646
620.949	871.0455
621.15	862.58981
621.351	828.76843
621.552	995.78135
621.753	801.29026
621.954	919.66825
622.155	816.086
622.356	902.75551
622.558	809.74492
622.759	902.75551
622.96	837.22357
623.161	1019.03987
623.362	845.67884
623.563	951.38093
623.764	949.2667
623.965	940.80986
624.166	769.58667
624.366	885.84328
624.567	725.20545
624.768	980.98088
624.969	780.15429
625.17	947.15248
625.371	940.80986
625.572	906.98365
625.773	860.47591
625.973	1012.69656
626.174	919.66825
626.375	839.33737
626.576	818.19972
626.777	989.43826
626.977	887.95728
627.178	964.06646
627.379	799.17662
627.58	945.03827
627.78	989.43826
627.981	978.86656
628.182	792.83576
628.382	1033.84112
628.583	938.69566
628.784	930.23896
628.984	904.86958
629.185	1109.96618
629.386	949.2667
629.586	1097.2782
629.787	936.58148
629.987	987.3239
630.188	989.43826
630.388	1065.55906
630.589	926.01066
630.79	936.58148
630.99	875.2734
631.191	1105.73684
631.391	980.98088
631.591	1150.14586
631.792	1031.72664
631.992	1095.16356
632.193	911.21182
632.393	1181.86772
632.594	974.63792
632.794	1167.06407
632.994	989.43826
633.195	1084.59041
633.395	991.55261
633.595	1122.65432
633.796	1012.69656
633.996	1158.60493
634.196	1046.52815
634.397	1097.2782
634.597	997.89573
634.797	1167.06407
634.997	1131.11318
635.198	1114.19554
635.398	993.66698
635.598	1126.88374
635.798	1031.72664
635.998	1164.94928
636.199	1093.04892
636.399	1380.67299
636.599	1050.7572
636.799	1175.52328
636.999	959.83792
637.199	1203.0161
637.399	1093.04892
637.599	1126.88374
637.799	1038.07011
637.999	1019.03987
638.199	1160.71971
638.399	1304.53251
638.599	1101.50751
638.799	1065.55906
638.999	1217.82017
639.199	1281.26782
639.399	1183.98254
639.599	1429.31902
639.799	1148.0311
639.999	1321.45245
640.199	1131.11318
640.399	1228.3946
640.599	1067.67363
640.799	1293.95762
640.998	1260.11833
641.198	1380.67299
641.398	1342.60252
641.598	1357.40765
641.798	1211.47555
641.997	1283.38278
642.197	1186.09737
642.397	1296.07259
642.597	1367.98279
642.796	1293.95762
642.996	1173.40847
643.196	1310.87747
643.395	1186.09737
643.595	1209.36068
643.795	1152.26062
643.994	1416.62872
644.194	1213.59042
644.394	1477.96521
644.593	1215.70529
644.793	1513.921
644.992	1258.0034
645.192	1497.00065
645.392	1215.70529
645.591	1410.28358
645.791	1270.69304
645.99	1342.60252
646.19	1241.08402
646.389	1465.27491
646.589	1300.30255
646.788	1399.70835
646.987	1241.08402
647.187	1376.44292
647.386	1302.41753
647.586	1492.77056
647.785	1406.05349
647.984	1435.66417
648.184	1418.74377
648.383	1513.921
648.582	1262.23327
648.782	1535.07136
648.981	1274.92295
649.18	1471.62006
649.38	1376.44292
649.579	1431.43407
649.778	1446.23943
649.977	1507.57587
650.177	1359.52268
650.376	1657.74055
650.575	1372.21285
650.774	1623.90143
650.973	1315.10746
651.173	1494.8856
651.372	1473.73511
651.571	1370.09782
651.77	1427.20397
651.969	1511.80596
652.168	1509.69092
652.367	1520.26612
652.566	1454.69964
652.765	1604.86667
652.964	1359.52268
653.163	1573.14173
653.362	1494.8856
653.561	1689.46413
653.76	1467.38996
653.959	1657.74055
654.158	1482.19531
654.357	1571.02672
654.556	1456.8147
654.755	1623.90143
654.954	1446.23943
655.153	1509.69092
655.352	1334.14247
655.551	1613.32658
655.749	1484.31036
655.948	1786.74526
656.147	1554.1066
656.346	1537.18639
656.545	1518.15108
656.743	1683.11946
656.942	1725.41671
657.141	1784.63054
657.34	1522.38116
657.538	1752.90921
657.737	1545.64651
657.936	1896.70467
658.135	1541.41645
658.333	1765.59785
658.532	1575.25674
658.731	1657.74055
658.929	1647.16589
659.128	1681.00457
659.326	1596.40672
659.525	1769.82736
659.724	1532.95633
659.922	1740.22044
660.121	1545.64651
660.319	1524.49619
660.518	1452.58459
660.716	1670.43006
660.915	1606.98165
661.113	1884.01772
661.312	1564.68169
661.51	1951.67915
661.709	1829.03884
661.907	1795.20411
662.105	1640.82106
662.304	1852.29954
662.502	1733.87601
662.701	1867.10149
662.899	1655.62562
663.097	1968.59359
663.296	1615.44155
663.494	1786.74526
663.692	1664.08531
663.891	1786.74526
664.089	1716.95736
664.287	1767.71261
664.485	1826.9242
664.684	1871.33058
664.882	1761.36832
665.08	1824.80956
665.278	1782.51581
665.476	1799.43352
665.675	1826.9242
665.873	1852.29954
666.071	1755.02399
666.269	1917.84915
666.467	1807.89227
666.665	1979.16492
666.863	1714.84252
667.061	1850.18495
667.259	1780.40108
667.457	2040.47543
667.655	1782.51581
667.853	1958.02211
668.051	1769.82736
668.249	1837.49734
668.447	1689.46413
668.645	1826.9242
668.843	1824.80956
669.041	1938.99308
669.239	1803.6629
669.437	1941.10744
669.635	1909.39142
669.833	1951.67915
670.031	1651.39576
670.229	2032.01914
670.426	1755.02399
670.624	1953.79348
670.822	1816.35095
671.02	1979.16492
671.218	1873.44512
671.415	1841.72656
671.613	1778.28634
671.811	1945.33614
672.009	1801.54821
672.206	1985.50763
672.404	1782.51581
672.602	1835.38272
672.799	1816.35095
672.997	1854.41412
673.195	1871.33058
673.392	2010.87794
673.59	1649.28083
673.788	1998.1929
673.985	1664.08531
674.183	1987.62186
674.38	1869.21604
674.578	2070.07157
674.775	1759.25354
674.973	1970.70787
675.17	1843.84117
675.368	1979.16492
675.565	1875.55965
675.763	1960.13642
675.96	1869.21604
676.158	2023.56274
676.355	1774.05686
676.553	2091.2108
676.75	1909.39142
676.947	1884.01772
677.145	1820.58026
677.342	1996.07871
677.539	1805.77759
677.737	1896.70467
677.934	1767.71261
678.131	2118.6907
678.329	1829.03884
678.526	1949.56482
678.723	1869.21604
678.92	2021.44862
679.118	1892.4757
679.315	2044.70353
679.512	2019.3345
679.709	2029.90505
679.906	1790.9747
680.104	1924.19239
680.301	1900.93361
680.498	1898.81914
680.695	1733.87601
680.892	2032.01914
681.089	1799.43352
681.286	2032.01914
681.483	1807.89227
681.68	2051.04564
681.877	1841.72656
682.075	1896.70467
682.272	1896.70467
682.469	1903.04807
682.665	1888.24672
682.862	1928.42118
683.059	1873.44512
683.256	1932.64996
683.453	1864.98694
683.65	1953.79348
683.847	1725.41671
684.044	1960.13642
684.241	1947.45048
684.438	2171.53295
684.635	1877.67417
684.831	1949.56482
685.028	2029.90505
685.225	1896.70467
685.422	1774.05686
685.619	1991.8503
685.815	1824.80956
686.012	2046.81757
686.209	1778.28634
686.405	2133.48703
686.602	1782.51581
686.799	1943.22179
686.996	1845.95577
687.192	1977.05066
687.389	1858.64326
687.586	2015.10623
687.782	1869.21604
687.979	2053.15966
688.175	1989.73608
688.372	1993.96451
688.568	1837.49734
688.765	2010.87794
688.962	1991.8503
689.158	1972.82214
689.355	1941.10744
689.551	1888.24672
689.748	1964.36502
689.944	2165.19214
690.14	1900.93361
690.337	2103.89399
690.533	1964.36502
690.73	2029.90505
690.926	1869.21604
691.123	1926.30679
691.319	1850.18495
691.515	1989.73608
691.712	1896.70467
691.908	2086.98301
692.104	1860.75783
692.301	2095.43856
692.497	1833.2681
692.693	2061.61567
692.889	1877.67417
693.086	1966.47931
693.282	1805.77759
693.478	1962.25072
693.674	1949.56482
693.87	1930.53557
694.067	1915.73473
694.263	1964.36502
694.459	1786.74526
694.655	2036.2473
694.851	1977.05066
695.047	2097.55243
695.243	1886.13222
695.439	2078.52735
695.635	1843.84117
695.831	2072.18552
696.027	1892.4757
696.224	1998.1929
696.42	1852.29954
696.615	2002.42128
696.811	2036.2473
697.007	2059.50168
697.203	1993.96451
697.399	2103.89399
697.595	1964.36502
697.791	1989.73608
697.987	1871.33058
698.183	2012.99209
698.379	1845.95577
698.575	2091.2108
698.77	2032.01914
698.966	2129.25954
699.162	1769.82736
699.358	2061.61567
699.554	1968.59359
699.749	2070.07157
699.945	1858.64326
700.141	1951.67915
700.337	1892.4757
700.532	2032.01914
700.728	1947.45048
700.924	2169.41936
701.119	1757.13877
701.315	2012.99209
701.511	1998.1929
701.706	2034.13322
701.902	1719.07221
702.097	2029.90505
702.293	1953.79348
702.489	1932.64996
702.684	1886.13222
702.88	2061.61567
703.075	1860.75783
703.271	2027.79095
703.466	1884.01772
703.662	2291.99353
703.857	1979.16492
704.053	2065.84363
704.248	1968.59359
704.443	2101.78014
704.639	1928.42118
704.834	2101.78014
705.03	1928.42118
705.225	2179.98724
705.42	1955.9078
705.616	2053.15966
705.811	1968.59359
706.006	2046.81757
706.202	1955.9078
706.397	1945.33614
706.592	2017.22037
706.787	2040.47543
706.983	2000.30709
707.178	2247.61667
707.373	1993.96451
707.568	1989.73608
707.763	1843.84117
707.959	1955.9078
708.154	2036.2473
708.349	1909.39142
708.544	2036.2473
708.739	2053.15966
708.934	1930.53557
709.129	2127.14579
709.324	1907.27698
709.519	1943.22179
709.714	1869.21604
709.909	2095.43856
710.104	1911.50586
710.299	2038.36137
710.494	1860.75783
710.689	2080.64128
710.884	1953.79348
711.079	2167.30575
711.274	1998.1929
711.469	2019.3345
711.664	1977.05066
711.859	2095.43856
712.054	1900.93361
712.249	1981.27916
712.443	1949.56482
712.638	2044.70353
712.833	1903.04807
713.028	2114.4631
713.223	1852.29954
713.417	1958.02211
713.612	1843.84117
713.807	1955.9078
714.002	1778.28634
714.196	2063.72965
714.391	1824.80956
714.586	1926.30679
714.78	2036.2473
714.975	2078.52735
715.17	1886.13222
715.364	2057.38768
715.559	1903.04807
715.754	2194.78193
715.948	1867.10149
716.143	2036.2473
716.337	1810.00694
716.532	2076.41341
716.726	2061.61567
716.921	2029.90505
717.115	1900.93361
717.31	2101.78014
717.504	1826.9242
717.699	2156.73762
717.893	2112.3493
718.088	2070.07157
718.282	1856.52869
718.476	2012.99209
718.671	1875.55965
718.865	2078.52735
719.059	2053.15966
719.254	2036.2473
719.448	1835.38272
719.642	2078.52735
719.837	1873.44512
720.031	2008.76378
720.225	1964.36502
720.419	1993.96451
720.614	1894.59019
720.808	2095.43856
721.002	1900.93361
721.196	2089.09691
721.39	1841.72656
721.585	2120.80448
721.779	1903.04807
721.973	2106.00783
722.167	1778.28634
722.361	2059.50168
722.555	1795.20411
722.749	2230.71015
722.943	1884.01772
723.137	1884.01772
723.331	1831.15347
723.525	1917.84915
723.719	1968.59359
723.913	2063.72965
724.107	1928.42118
724.301	2019.3345
724.495	1818.46561
724.689	1903.04807
724.883	1820.58026
725.077	2040.47543
725.271	1911.50586
725.465	1919.96357
725.659	1875.55965
725.853	2065.84363
726.046	1960.13642
726.24	1919.96357
726.434	1797.31882
726.628	2091.2108
726.822	1856.52869
727.015	1837.49734
727.209	1877.67417
727.403	2065.84363
727.596	1862.87239
727.79	2029.90505
727.984	1670.43006
728.177	2078.52735
728.371	1875.55965
728.565	2036.2473
728.758	1993.96451
728.952	2019.3345
729.146	1776.1716
729.339	2154.62397
729.533	1721.18705
729.726	1972.82214
729.92	1856.52869
730.113	2006.64962
730.307	1731.76119
730.5	1879.78869
730.694	1968.59359
730.887	1964.36502
731.081	1938.99308
731.274	1960.13642
731.468	1640.82106
731.661	1852.29954
731.854	1649.28083
732.048	1873.44512
732.241	1909.39142
732.435	2027.79095
732.628	2203.23585
732.821	2213.80306
733.014	1998.1929
733.208	1884.01772
733.401	2002.42128
733.594	2086.98301
733.788	2012.99209
733.981	1909.39142
734.174	1960.13642
734.367	1996.07871
734.56	1934.76434
734.754	1989.73608
734.947	1932.64996
735.14	1945.33614
735.333	1843.84117
735.526	1960.13642
735.719	1888.24672
735.912	1871.33058
736.105	1981.27916
736.298	1977.05066
736.491	1886.13222
736.684	1996.07871
736.877	1911.50586
737.07	2070.07157
737.263	1884.01772
737.456	1917.84915
737.649	1835.38272
737.842	2036.2473
738.035	1909.39142
738.228	1977.05066
738.421	1951.67915
738.614	2002.42128
738.807	1953.79348
739	2019.3345
739.192	2004.53545
739.385	1719.07221
739.578	1871.33058
739.771	1970.70787
739.964	1943.22179
740.156	2103.89399
740.349	1848.07036
740.542	2002.42128
740.735	2038.36137
740.927	1930.53557
741.12	2042.58948
741.313	2112.3493
741.505	1919.96357
741.698	1928.42118
741.891	2002.42128
742.083	2148.28297
742.276	2048.93161
742.468	1979.16492
742.661	1962.25072
742.854	1949.56482
743.046	1917.84915
743.239	2074.29947
743.431	1917.84915
743.624	2059.50168
743.816	2053.15966
744.009	2061.61567
744.201	1972.82214
744.393	2004.53545
744.586	1900.93361
744.778	1945.33614
744.971	1962.25072
745.163	2089.09691
745.355	2171.53295
745.548	2112.3493
745.74	2044.70353
745.932	2154.62397
746.125	2032.01914
746.317	1919.96357
746.509	1928.42118
746.702	2027.79095
746.894	1926.30679
747.086	1888.24672
747.278	1911.50586
747.471	1890.36121
747.663	1894.59019
747.855	1964.36502
748.047	1928.42118
748.239	2017.22037
748.431	2086.98301
748.623	2129.25954
748.815	2116.5769
749.008	2038.36137
749.2	2125.03203
749.392	1968.59359
749.584	1949.56482
749.776	1903.04807
749.968	2025.67685
750.16	2112.3493
750.352	1886.13222
750.544	1894.59019
750.736	1968.59359
750.928	1968.59359
751.12	1949.56482
751.311	1884.01772
751.503	2133.48703
751.695	2012.99209
751.887	1873.44512
752.079	1860.75783
752.271	1793.08941
752.463	1962.25072
752.654	1845.95577
752.846	1900.93361
753.038	1835.38272
753.23	2004.53545
753.421	1968.59359
753.613	2116.5769
753.805	1860.75783
753.997	1943.22179
754.188	1867.10149
754.38	1936.87871
754.572	1845.95577
754.763	1922.07798
754.955	1881.90321
755.146	1890.36121
755.338	1799.43352
755.53	1938.99308
755.721	1752.90921
755.913	1877.67417
756.104	1750.79442
756.296	1890.36121
756.487	1767.71261
756.679	2118.6907
756.87	1928.42118
757.062	1890.36121
757.253	1748.67963
757.445	1979.16492
757.636	1977.05066
757.827	1960.13642
758.019	1839.61195
758.21	1900.93361
758.401	1850.18495
758.593	1926.30679
758.784	1742.33524
758.975	1905.16252
759.167	1816.35095
759.358	1930.53557
759.549	1873.44512
759.74	1716.95736
759.932	1790.9747
760.123	1774.05686
760.314	1769.82736
760.505	1848.07036
760.696	1725.41671
760.888	1765.59785
761.079	1689.46413
761.27	1884.01772
761.461	1763.48308
761.652	1993.96451
761.843	1856.52869
762.034	1769.82736
762.225	1742.33524
762.416	1735.99082
762.607	1668.31515
762.798	1719.07221
762.989	1750.79442
763.18	1774.05686
763.371	1606.98165
763.562	1691.57901
763.753	1735.99082
763.944	1700.03851
764.135	1683.11946
764.326	1911.50586
764.517	1700.03851
764.708	1833.2681
764.899	1600.6367
765.089	1833.2681
765.28	1604.86667
765.471	1700.03851
765.662	1452.58459
765.853	1702.15338
766.043	1520.26612
766.234	1655.62562
766.425	1615.44155
766.615	1630.24631
766.806	1511.80596
766.997	1782.51581
767.187	1630.24631
767.378	1564.68169
767.569	1695.80877
767.759	1655.62562
767.95	1619.67149
768.141	1598.52171
768.331	1482.19531
768.522	1613.32658
768.712	1539.30142
768.903	1731.76119
769.093	1545.64651
769.284	1520.26612
769.474	1670.43006
769.665	1583.71675
769.855	1494.8856
770.046	1615.44155
770.236	1647.16589
770.426	1596.40672
770.617	1672.54496
770.807	1611.21161
770.998	1556.22162
771.188	1609.09663
771.378	1661.9704
771.569	1630.24631
771.759	1606.98165
771.949	1661.9704
772.139	1513.921
772.33	1425.08892
772.52	1469.50501
772.71	1566.7967
772.9	1401.8234
773.09	1520.26612
773.281	1564.68169
773.471	1530.8413
773.661	1391.24818
773.851	1735.99082
774.041	1380.67299
774.231	1549.87656
774.421	1334.14247
774.611	1484.31036
774.802	1393.36322
774.992	1389.13314
775.182	1391.24818
775.372	1488.54046
775.562	1351.06259
775.752	1461.0448
775.942	1439.89428
776.131	1571.02672
776.321	1399.70835
776.511	1590.06175
776.701	1469.50501
776.891	1522.38116
777.081	1367.98279
777.271	1609.09663
777.461	1433.54912
777.651	1556.22162
777.84	1376.44292
778.03	1422.97387
778.22	1446.23943
778.41	1431.43407
778.599	1376.44292
778.789	1702.15338
778.979	1463.15985
779.169	1528.72626
779.358	1418.74377
779.548	1408.16853
779.738	1359.52268
779.927	1532.95633
780.117	1260.11833
780.307	1444.12438
780.496	1380.67299
780.686	1389.13314
780.875	1367.98279
781.065	1401.8234
781.254	1258.0034
781.444	1410.28358
781.633	1338.37249
781.823	1439.89428
782.012	1274.92295
782.202	1353.17761
782.391	1232.62439
782.581	1194.55671
782.77	1194.55671
782.96	1513.921
783.149	1317.22245
783.338	1374.32789
783.528	1355.29263
783.717	1363.75273
783.906	1164.94928
784.096	1283.38278
784.285	1302.41753
784.474	1351.06259
784.663	1207.24582
784.853	1300.30255
785.042	1198.7864
785.231	1450.46954
785.42	1200.90125
785.61	1255.88846
785.799	1131.11318
785.988	1196.67155
786.177	1021.15431
786.366	1228.3946
786.555	1164.94928
786.744	1403.93844
786.933	1253.77354
787.122	1203.0161
787.312	1158.60493
787.501	1444.12438
787.69	1173.40847
787.879	1243.19893
788.068	1118.42492
788.257	1293.95762
788.445	1076.13198
788.634	1222.04993
788.823	1082.47579
789.012	1215.70529
789.201	1141.68685
789.39	1181.86772
789.579	1099.39286
789.768	1274.92295
789.957	1019.03987
790.145	1317.22245
790.334	1160.71971
790.523	1262.23327
790.712	1234.73929
790.9	1200.90125
791.089	1162.8345
791.278	1232.62439
791.467	1152.26062
791.655	1258.0034
791.844	1116.31023
792.033	1131.11318
792.221	1074.01738
792.41	1279.15286
792.599	1021.15431
792.787	1228.3946
792.976	1109.96618
793.164	1131.11318
793.353	1122.65432
793.541	1135.34263
793.73	1031.72664
793.918	1211.47555
794.107	1097.2782
794.295	1139.5721
794.484	1088.81965
794.672	1097.2782
794.861	1019.03987
795.049	1040.18461
795.238	964.06646
795.426	1164.94928
795.614	1040.18461
795.803	1133.2279
795.991	1000.01012
796.179	1057.10082
796.368	1031.72664
796.556	1120.53962
796.744	881.6153
796.932	1118.42492
797.121	1014.81099
797.309	1181.86772
797.497	1112.08086
797.685	1152.26062
797.874	928.12481
798.062	1021.15431
798.25	966.18074
798.438	892.18531
798.626	1012.69656
798.814	1215.70529
799.002	949.2667
799.19	1012.69656
799.378	970.40932
799.566	989.43826
799.755	932.35313
799.943	1046.52815
800.131	1046.52815
800.318	930.23896
800.506	989.43826
800.694	995.78135
800.882	852.02039
801.07	1088.81965
801.258	970.40932
801.446	953.49517
801.634	995.78135
801.822	934.4673
802.01	976.75224
802.197	1086.70503
802.385	1008.46772
802.573	1071.90279
802.761	947.15248
802.949	1088.81965
803.136	953.49517
803.324	997.89573
803.512	949.2667
803.699	1088.81965
803.887	860.47591
804.075	1131.11318
804.262	1107.8515
804.45	957.72367
804.638	978.86656
804.825	1097.2782
805.013	1000.01012
805.201	1067.67363
805.388	955.60942
805.576	1014.81099
805.763	1002.12451
805.951	885.84328
806.138	997.89573
806.326	1006.35331
806.513	1012.69656
806.701	1080.36118
806.888	1002.12451
807.075	1158.60493
807.263	1035.95561
807.45	1101.50751
807.638	1002.12451
807.825	955.60942
808.012	987.3239
808.2	1093.04892
808.387	1088.81965
808.574	1025.38323
808.761	1057.10082
808.949	1061.32993
809.136	1054.98627
809.323	1088.81965
809.51	1038.07011
809.698	1114.19554
809.885	995.78135
810.072	942.92406
810.259	1012.69656
810.446	1158.60493
810.633	1099.39286
810.82	1186.09737
811.008	1088.81965
811.195	1004.23891
811.382	1023.26877
811.569	1122.65432
811.756	1038.07011
811.943	1291.84265
812.13	1040.18461
812.317	1105.73684
812.504	1175.52328
812.691	1232.62439
812.878	1183.98254
813.064	1351.06259
813.251	1088.81965
813.438	1148.0311
813.625	1088.81965
813.812	1078.24658
813.999	1105.73684
814.186	1084.59041
814.372	1093.04892
814.559	1071.90279
814.746	955.60942
814.933	1101.50751
815.12	987.3239
815.306	1023.26877
815.493	1038.07011
815.68	1090.93428
815.866	1105.73684
816.053	959.83792
816.24	1052.87173
816.426	1054.98627
816.613	997.89573
816.799	1105.73684
816.986	1097.2782
817.173	1038.07011
817.359	961.95219
817.546	1211.47555
817.732	866.81764
817.919	1093.04892
818.105	955.60942
818.292	1148.0311
818.478	1052.87173
818.665	1133.2279
818.851	921.78238
819.037	1038.07011
819.224	898.52741
819.41	1012.69656
819.597	1050.7572
819.783	1126.88374
819.969	978.86656
820.156	1139.5721
820.342	932.35313
820.528	1173.40847
820.714	980.98088
820.901	1071.90279
821.087	1023.26877
821.273	1086.70503
821.459	1057.10082
821.646	1076.13198
821.832	1014.81099
822.018	1131.11318
822.204	928.12481
822.39	991.55261
822.576	877.38736
822.762	995.78135
822.948	987.3239
823.134	1014.81099
823.32	892.18531
823.507	987.3239
823.693	974.63792
823.879	1080.36118
824.065	997.89573
824.25	1054.98627
824.436	978.86656
824.622	1133.2279
824.808	928.12481
824.994	1071.90279
825.18	885.84328
825.366	964.06646
825.552	835.10977
825.738	1230.50949
825.923	945.03827
826.109	1114.19554
826.295	961.95219
826.481	1059.21537
826.667	970.40932
826.852	1046.52815
827.038	1004.23891
827.224	1002.12451
827.409	1063.44449
827.595	1038.07011
827.781	940.80986
827.966	1057.10082
828.152	852.02039
828.338	945.03827
828.523	947.15248
828.709	1074.01738
828.894	852.02039
829.08	1071.90279
829.266	816.086
829.451	1025.38323
829.637	813.9723
829.822	892.18531
830.008	754.79243
830.193	860.47591
830.378	767.47318
830.564	1046.52815
830.749	784.38141
830.935	961.95219
831.12	720.97891
831.305	1023.26877
831.491	868.93157
831.676	873.15945
831.861	940.80986
832.047	1025.38323
832.232	801.29026
832.417	873.15945
832.602	858.36202
832.788	947.15248
832.973	826.65467
833.158	1025.38323
833.343	961.95219
833.528	809.74492
833.714	805.51757
833.899	890.07129
834.084	868.93157
834.269	911.21182
834.454	839.33737
834.639	906.98365
834.824	860.47591
835.009	845.67884
835.194	784.38141
835.379	852.02039
835.564	881.6153
835.749	919.66825
835.934	835.10977
836.119	873.15945
836.304	811.8586
836.489	837.22357
836.674	778.04075
836.859	809.74492
837.044	765.35969
837.228	877.38736
837.413	767.47318
837.598	868.93157
837.783	754.79243
837.968	701.96001
838.152	710.41275
838.337	805.51757
838.522	712.52596
838.707	771.70018
838.891	784.38141
839.076	822.42718
839.261	731.54534
839.445	803.40391
839.63	733.65866
839.815	811.8586
839.999	674.48987
840.184	826.65467
840.368	725.20545
840.553	778.04075
840.737	659.69906
840.922	786.49498
841.106	742.11204
841.291	820.31344
841.475	691.39435
841.66	809.74492
841.844	735.77199
842.029	691.39435
842.213	763.24622
842.397	720.97891
842.582	687.16816
842.766	729.43204
842.951	640.68315
843.135	710.41275
843.319	651.24742
843.504	682.94202
843.688	640.68315
843.872	725.20545
844.056	786.49498
844.241	710.41275
844.425	657.58613
844.609	704.07318
844.793	651.24742
844.977	725.20545
845.161	587.86644
845.346	682.94202
845.53	651.24742
845.714	733.65866
845.898	657.58613
846.082	775.92721
846.266	592.09148
846.45	725.20545
846.634	585.75393
846.818	716.75241
847.002	606.87955
847.186	727.31874
847.37	691.39435
847.554	759.0193
847.738	583.64144
847.922	744.22541
848.106	625.89368
848.29	604.76693
848.473	623.78095
848.657	583.64144
848.841	608.99218
849.025	564.62963
849.209	541.39445
849.392	649.13455
849.576	505.48886
849.76	530.83356
849.944	480.14624
850.127	615.33015
850.311	543.50667
850.495	769.58667
850.678	589.97895
850.862	657.58613
851.046	564.62963
851.229	619.55552
851.413	511.82484
851.596	674.48987
851.78	581.52897
851.964	630.11918
852.147	520.27302
852.331	497.04108
852.514	526.6093
852.698	625.89368
852.881	513.93686
853.065	560.40493
853.248	478.03445
853.431	547.73116
853.615	545.61891
853.798	657.58613
853.982	391.46444
854.165	556.18028
854.348	471.69917
854.532	490.7054
854.715	412.57661
854.898	619.55552
855.081	433.6904
855.265	539.28225
855.448	448.471
855.631	395.68674
855.814	509.71283
855.997	526.6093
856.181	558.2926
856.364	471.69917
856.547	416.79924
856.73	492.81728
856.913	454.80577
857.096	522.3851
857.279	480.14624
857.462	497.04108
857.645	503.37689
857.828	408.35405
858.011	484.36986
858.194	558.2926
858.377	393.57558
858.56	537.17005
858.743	465.36403
858.926	456.91739
859.109	545.61891
859.292	522.3851
859.475	351.3559
859.658	475.92268
859.841	395.68674
860.023	406.24279
860.206	380.90897
860.389	406.24279
860.572	467.47573
860.755	484.36986
860.937	345.02353
861.12	526.6093
861.303	351.3559
861.486	488.59354
861.668	429.46752
861.851	395.68674
862.034	433.6904
862.216	490.7054
862.399	389.35331
862.581	478.03445
862.764	330.24862
862.947	404.13155
863.129	359.79929
863.312	349.24509
863.494	391.46444
863.677	448.471
863.859	345.02353
864.042	406.24279
864.224	395.68674
864.406	440.02485
864.589	467.47573
864.771	391.46444
864.954	437.91335
865.136	421.02194
865.318	349.24509
865.501	353.46672
865.683	313.36408
865.865	357.68842
866.048	243.72771
866.23	380.90897
866.412	288.03942
866.594	353.46672
866.777	338.69132
866.959	296.48068
867.141	345.02353
867.323	355.57756
867.505	298.59104
867.687	349.24509
867.869	294.37034
868.052	349.24509
868.234	307.03267
868.416	319.69565
868.598	288.03942
868.78	366.13202
868.962	336.58062
869.144	347.1343
869.326	323.91679
869.508	304.92223
869.69	378.79793
869.872	380.90897
870.054	220.52019
870.236	444.24789
870.417	239.50798
870.599	378.79793
870.781	260.60738
870.963	380.90897
871.145	285.92915
871.327	353.46672
871.508	243.72771
871.69	271.15779
871.872	233.17854
872.054	264.82749
872.235	277.48826
872.417	323.91679
872.599	334.46994
872.78	338.69132
872.962	294.37034
873.144	330.24862
873.325	218.41053
873.507	313.36408
873.689	315.47458
873.87	275.37808
874.052	285.92915
874.233	294.37034
874.415	311.25359
874.596	347.1343
874.778	256.38735
874.959	311.25359
875.141	311.25359
875.322	408.35405
875.503	260.60738
875.685	378.79793
875.866	193.0962
876.048	332.35927
876.229	294.37034
876.41	302.81182
876.592	311.25359
876.773	235.28834
876.954	226.84928
877.136	442.13636
877.317	290.14971
877.498	250.05744
877.679	269.04767
877.86	271.15779
878.042	254.27736
878.223	256.38735
878.404	340.80204
878.585	237.39815
878.766	313.36408
878.947	258.49735
879.128	269.04767
879.309	319.69565
879.49	378.79793
879.672	247.94751
879.853	332.35927
880.034	338.69132
880.215	184.65873
880.396	245.8376
880.576	309.14312
880.757	321.80621
880.938	260.60738
881.119	296.48068
881.3	237.39815
881.481	304.92223
881.662	288.03942
881.843	431.57895
882.023	294.37034
882.204	345.02353
882.385	250.05744
882.566	364.02109
882.747	307.03267
882.927	351.3559
883.108	294.37034
883.289	273.26793
883.469	260.60738
883.65	414.68792
883.831	296.48068
884.011	334.46994
884.192	319.69565
884.373	410.46532
884.553	311.25359
884.734	433.6904
884.914	279.59846
885.095	433.6904
885.275	252.16739
885.456	450.58257
885.636	262.71742
885.817	416.79924
885.997	463.25235
886.178	336.58062
886.358	399.90911
886.538	364.02109
886.719	302.81182
886.899	374.57589
887.08	376.6869
887.26	323.91679
887.44	294.37034
887.621	338.69132
887.801	302.81182
887.981	385.13111
888.161	269.04767
888.342	378.79793
888.522	309.14312
888.702	345.02353
888.882	334.46994
889.062	336.58062
889.242	328.13799
889.423	271.15779
889.603	317.58511
889.783	368.24296
889.963	296.48068
890.143	311.25359
890.323	311.25359
890.503	315.47458
890.683	319.69565
890.863	338.69132
891.043	288.03942
891.223	378.79793
891.403	235.28834
891.583	285.92915
891.763	294.37034
891.943	340.80204
892.122	340.80204
892.302	351.3559
892.482	235.28834
892.662	336.58062
892.842	361.91018
893.022	433.6904
893.201	226.84928
893.381	412.57661
893.561	319.69565
893.741	353.46672
893.92	262.71742
894.1	378.79793
894.28	285.92915
894.459	332.35927
894.639	273.26793
894.819	385.13111
894.998	340.80204
895.178	349.24509
895.357	271.15779
895.537	302.81182
895.716	279.59846
895.896	271.15779
896.075	262.71742
896.255	273.26793
896.434	269.04767
896.614	372.4649
896.793	307.03267
896.973	195.20561
897.152	239.50798
897.331	296.48068
897.511	262.71742
897.69	311.25359
897.87	243.72771
898.049	228.95901
898.228	256.38735
898.407	336.58062
898.587	277.48826
898.766	288.03942
898.945	294.37034
899.124	307.03267
899.304	180.44012
899.483	279.59846
899.662	212.08167
899.841	330.24862
900.02	197.31505
900.199	271.15779
900.378	262.71742
900.557	277.48826
900.737	264.82749
900.916	296.48068
901.095	182.54942
901.274	228.95901
901.453	277.48826
901.632	273.26793
901.811	216.30089
901.989	226.84928
902.168	218.41053
902.347	241.61784
902.526	184.65873
902.705	271.15779
902.884	129.82329
903.063	243.72771
903.242	142.47636
903.42	125.60578
903.599	195.20561
903.778	201.53399
903.957	176.22159
904.135	148.80318
904.314	108.73657
904.493	193.0962
904.672	134.0409
904.85	150.91217
905.029	125.60578
905.207	203.64348
905.386	260.60738
905.565	226.84928
905.743	167.78478
905.922	197.31505
906.1	87.65205
906.279	195.20561
906.457	153.02117
906.636	153.02117
906.814	93.97717
906.993	129.82329
907.171	110.84515
907.35	125.60578
907.528	161.45739
907.707	146.69422
907.885	176.22159
908.063	121.38835
908.242	102.41098
908.42	75.0024
908.598	68.67788
908.777	100.3025
908.955	203.64348
909.133	142.47636
909.311	87.65205
909.49	136.14973
909.668	138.25859
909.846	212.08167
910.024	209.9721
910.202	163.5665
910.38	146.69422
910.559	91.86877
910.737	150.91217
910.915	142.47636
911.093	155.13019
911.271	216.30089
911.449	169.89395
911.627	104.51949
911.805	41.27401
911.983	155.13019
912.161	93.97717
912.339	136.14973
912.517	153.02117
912.695	138.25859
912.872	159.34831
913.05	184.65873
913.228	228.95901
913.406	176.22159
913.584	186.76807
913.762	195.20561
913.939	138.25859
914.117	112.95374
914.295	169.89395
914.473	167.78478
914.65	108.73657
914.828	87.65205
915.006	77.11062
915.184	146.69422
915.361	125.60578
915.539	150.91217
915.716	127.71452
915.894	184.65873
916.072	87.65205
916.249	129.82329
916.427	167.78478
916.604	201.53399
916.782	131.93208
916.959	60.24551
917.137	155.13019
917.314	127.71452
917.492	70.78603
917.669	150.91217
917.847	66.56975
918.024	83.43541
918.201	79.21886
918.379	172.00315
918.556	138.25859
918.733	75.0024
918.911	100.3025
919.088	125.60578
919.265	127.71452
919.442	96.08559
919.62	100.3025
919.797	159.34831
919.974	142.47636
920.151	163.5665
920.328	28.62739
920.506	93.97717
920.683	108.73657
920.86	138.25859
921.037	125.60578
921.214	89.7604
921.391	129.82329
921.568	108.73657
921.745	142.47636
921.922	110.84515
922.099	180.44012
922.276	83.43541
922.453	144.58528
922.63	70.78603
922.807	53.92147
922.984	146.69422
923.161	169.89395
923.338	121.38835
923.514	104.51949
923.691	83.43541
923.868	70.78603
924.045	75.0024
924.222	119.27966
924.399	102.41098
924.575	98.19403
924.752	144.58528
924.929	102.41098
925.105	75.0024
925.282	75.0024
925.459	188.87742
925.635	91.86877
925.812	150.91217
925.989	96.08559
926.165	11.76656
926.342	85.54372
926.518	62.35357
926.695	72.8942
926.871	60.24551
927.048	138.25859
927.224	58.13747
927.401	39.16618
927.577	110.84515
927.754	150.91217
927.93	32.84284
928.107	18.08919
928.283	37.05838
928.459	125.60578
928.636	62.35357
928.812	119.27966
928.988	-0.87807
929.165	43.38186
929.341	68.67788
929.517	66.56975
929.693	66.56975
929.87	75.0024
930.046	75.0024
930.222	112.95374
930.398	112.95374
930.574	45.48974
930.751	7.55158
930.927	91.86877
931.103	18.08919
931.279	3.33671
931.455	75.0024
931.631	26.51971
931.807	91.86877
931.983	70.78603
932.159	91.86877
932.335	100.3025
932.511	60.24551
932.687	91.86877
932.863	81.32712
933.039	-0.87807
933.215	62.35357
933.391	43.38186
933.566	53.92147
933.742	9.65906
933.918	96.08559
934.094	-7.20006
934.27	89.7604
934.445	37.05838
934.621	77.11062
934.797	49.70556
934.973	104.51949
935.148	39.16618
935.324	26.51971
935.5	11.76656
935.675	91.86877
935.851	-13.52183
936.027	-0.87807
936.202	-7.20006
936.378	91.86877
936.553	-26.16471
936.729	43.38186
936.904	-26.16471
937.08	-15.62904
937.255	60.24551
937.431	24.41204
937.606	24.41204
937.782	18.08919
937.957	41.27401
938.133	-61.98135
938.308	159.34831
938.483	45.48974
938.659	75.0024
938.834	-15.62904
939.009	34.9506
939.185	20.19678
939.36	7.55158
939.535	66.56975
939.71	45.48974
939.886	24.41204
940.061	64.46165
940.236	37.05838
940.411	-26.16471
940.586	37.05838
940.761	49.70556
940.937	66.56975
941.112	66.56975
941.287	70.78603
941.462	49.70556
941.637	18.08919
941.812	-0.87807
941.987	60.24551
942.162	-26.16471
942.337	-2.98542
942.512	26.51971
942.687	7.55158
942.862	49.70556
943.037	3.33671
943.212	51.8135
943.386	-24.05762
943.561	-36.69976
943.736	-40.91361
943.911	-17.73622
944.086	7.55158
944.26	3.33671
944.435	-7.20006
944.61	66.56975
944.785	53.92147
944.959	-68.30117
945.134	41.27401
945.309	-34.5928
945.483	5.44413
945.658	-5.09275
945.833	11.76656
946.007	32.84284
946.182	28.62739
946.357	32.84284
946.531	58.13747
946.706	30.7351
946.88	-68.30117
947.055	28.62739
947.229	58.13747
947.404	-85.15292
947.578	49.70556
947.752	-5.09275
947.927	-38.8067
948.101	58.13747
948.276	-0.87807
948.45	49.70556
948.624	32.84284
948.799	-68.30117
948.973	26.51971
949.147	68.67788
949.321	32.84284
949.496	7.55158
949.67	15.98162
949.844	-30.3788
950.018	11.76656
950.193	5.44413
950.367	24.41204
950.541	-36.69976
950.715	15.98162
950.889	45.48974
951.063	68.67788
951.237	85.54372
951.411	-51.44779
951.585	66.56975
951.759	1.22931
951.933	-76.72725
952.107	-34.5928
952.281	49.70556
952.455	15.98162
952.629	37.05838
952.803	-9.30734
952.977	15.98162
953.151	41.27401
953.325	53.92147
953.499	15.98162
953.672	32.84284
953.846	-9.30734
954.02	-0.87807
954.194	34.9506
954.368	53.92147
954.541	-9.30734
954.715	-17.73622
954.889	43.38186
955.062	37.05838
955.236	-17.73622
955.41	-24.05762
955.583	66.56975
955.757	26.51971
955.93	45.48974
956.104	56.02946
956.278	34.9506
956.451	64.46165
956.625	-5.09275
956.798	49.70556
956.972	-2.98542
957.145	24.41204
957.319	32.84284
957.492	18.08919
957.665	32.84284
957.839	15.98162
958.012	58.13747
958.185	-32.48582
958.359	18.08919
958.532	70.78603
958.705	-34.5928
958.879	-21.95051
959.052	-0.87807
959.225	-5.09275
959.398	41.27401
959.572	66.56975
959.745	83.43541
959.918	18.08919
960.091	-38.8067
960.264	93.97717
960.438	51.8135
960.611	98.19403
960.784	28.62739
960.957	3.33671
961.13	-36.69976
961.303	41.27401
961.476	20.19678
961.649	41.27401
961.822	58.13747
961.995	68.67788
962.168	11.76656
962.341	3.33671
962.514	-59.87469
962.686	106.62802
962.859	49.70556
963.032	24.41204
963.205	-13.52183
963.378	37.05838
963.551	72.8942
963.723	32.84284
963.896	41.27401
964.069	9.65906
964.242	7.55158
964.414	104.51949
964.587	66.56975
964.76	49.70556
964.932	34.9506
965.105	11.76656
965.278	45.48974
965.45	-32.48582
965.623	75.0024
965.795	7.55158
965.968	7.55158
966.14	3.33671
966.313	66.56975
966.485	1.22931
966.658	9.65906
966.83	7.55158
967.003	-36.69976
967.175	32.84284
967.348	37.05838
967.52	43.38186
967.692	-26.16471
967.865	32.84284
968.037	-30.3788
968.209	3.33671
968.382	-9.30734
968.554	34.9506
968.726	45.48974
968.898	66.56975
969.071	11.76656
969.243	9.65906
969.415	-5.09275
969.587	-17.73622
969.759	22.3044
969.932	37.05838
970.104	-26.16471
970.276	30.7351
970.448	7.55158
970.62	-40.91361
970.792	64.46165
970.964	30.7351
971.136	75.0024
971.308	-5.09275
971.48	-21.95051
971.652	85.54372
971.824	-0.87807
971.996	-49.34101
972.168	-45.12736
972.339	43.38186
972.511	47.59764
972.683	7.55158
972.855	39.16618
973.027	-36.69976
973.199	60.24551
973.37	-2.98542
973.542	-0.87807
973.714	26.51971
973.886	30.7351
974.057	58.13747
974.229	-32.48582
974.401	13.87408
974.572	-32.48582
974.744	49.70556
974.915	30.7351
975.087	34.9506
975.259	-21.95051
975.43	15.98162
975.602	79.21886
975.773	-13.52183
975.945	-7.20006
976.116	-47.2342
976.288	13.87408
976.459	18.08919
976.63	-24.05762
976.802	30.7351
976.973	3.33671
977.145	-40.91361
977.316	-17.73622
977.487	11.76656
977.659	-17.73622
977.83	1.22931
978.001	49.70556
978.172	85.54372
978.344	58.13747
978.515	28.62739
978.686	-21.95051
978.857	11.76656
979.028	-0.87807
979.2	60.24551
979.371	32.84284
979.542	-13.52183
979.713	-51.44779
979.884	75.0024
980.055	28.62739
980.226	28.62739
980.397	-7.20006
980.568	-17.73622
980.739	39.16618
980.91	-66.19459
981.081	-15.62904
981.252	26.51971
981.423	-43.0205
981.594	-7.20006
981.765	56.02946
981.936	75.0024
982.106	11.76656
982.277	7.55158
982.448	51.8135
982.619	11.76656
982.79	-66.19459
982.96	-9.30734
983.131	-26.16471
983.302	9.65906
983.472	-53.55456
983.643	24.41204
983.814	30.7351
983.984	34.9506
984.155	41.27401
984.326	41.27401
984.496	64.46165
984.667	-2.98542
984.837	24.41204
985.008	-5.09275
985.178	-34.5928
985.349	-26.16471
985.519	43.38186
985.69	18.08919
985.86	-76.72725
986.031	-15.62904
986.201	45.48974
986.371	51.8135
986.542	56.02946
986.712	-0.87807
986.882	41.27401
987.053	-47.2342
987.223	53.92147
987.393	49.70556
987.563	3.33671
987.734	43.38186
987.904	62.35357
988.074	64.46165
988.244	30.7351
988.414	-17.73622
988.585	-30.3788
988.755	15.98162
988.925	5.44413
989.095	28.62739
989.265	20.19678
989.435	-9.30734
989.605	39.16618
989.775	91.86877
989.945	-5.09275
990.115	-5.09275
990.285	1.22931
990.455	-34.5928
990.625	62.35357
990.795	-15.62904
990.965	3.33671
991.134	15.98162
991.304	24.41204
991.474	15.98162
991.644	-19.84338
991.814	9.65906
991.984	15.98162
992.153	34.9506
992.323	-26.16471
992.493	43.38186
992.662	-40.91361
992.832	43.38186
993.002	-21.95051
993.171	9.65906
993.341	-26.16471
993.511	-15.62904
993.68	-99.89684
993.85	15.98162
994.019	-15.62904
994.189	-51.44779
994.358	62.35357
994.528	15.98162
994.697	-85.15292
994.867	-9.30734
995.036	-21.95051
995.206	45.48974
995.375	20.19678
995.544	70.78603
995.714	62.35357
995.883	-47.2342
996.052	24.41204
996.222	-24.05762
996.391	-17.73622
996.56	-17.73622
996.73	64.46165
996.899	11.76656
997.068	3.33671
997.237	-9.30734
997.406	-26.16471
997.576	-5.09275
997.745	108.73657
997.914	-34.5928
998.083	-76.72725
998.252	79.21886
998.421	43.38186
998.59	24.41204
998.759	43.38186
998.928	-0.87807
999.097	-24.05762
999.266	72.8942
999.435	13.87408
999.604	-38.8067
999.773	75.0024
999.942	24.41204
1000.111	60.24551
1000.28	106.62802
1000.448	-9.30734
1000.617	18.08919
1000.786	-70.40773
1000.955	-7.20006
1001.124	51.8135
1001.292	24.41204
1001.461	-32.48582
1001.63	-36.69976
1001.798	-118.85142
1001.967	32.84284
1002.136	-30.3788
1002.304	30.7351
1002.473	7.55158
1002.642	-51.44779
1002.81	7.55158
1002.979	41.27401
1003.147	7.55158
1003.316	-51.44779
1003.484	-47.2342
1003.653	18.08919
1003.821	-2.98542
1003.99	37.05838
1004.158	-26.16471
1004.327	34.9506
1004.495	-7.20006
1004.663	45.48974
1004.832	-32.48582
1005	22.3044
1005.168	-28.27177
1005.337	37.05838
1005.505	-15.62904
1005.673	15.98162
1005.842	66.56975
1006.01	43.38186
1006.178	-11.4146
1006.346	-43.0205
1006.514	3.33671
1006.683	-11.4146
1006.851	7.55158
1007.019	-7.20006
1007.187	-49.34101
1007.355	-13.52183
1007.523	56.02946
1007.691	49.70556
1007.859	45.48974
1008.027	-102.00301
1008.195	75.0024
1008.363	-7.20006
1008.531	9.65906
1008.699	-61.98135
1008.867	5.44413
1009.035	15.98162
1009.203	37.05838
1009.37	49.70556
1009.538	28.62739
1009.706	30.7351
1009.874	-11.4146
1010.042	24.41204
1010.209	-11.4146
1010.377	26.51971
1010.545	20.19678
1010.713	39.16618
1010.88	43.38186
1011.048	-30.3788
1011.216	-13.52183
1011.383	-34.5928
1011.551	-11.4146
1011.718	-17.73622
1011.886	66.56975
1012.054	7.55158
1012.221	-21.95051
1012.389	58.13747
1012.556	18.08919
1012.724	49.70556
1012.891	-0.87807
1013.058	53.92147
1013.226	15.98162
1013.393	13.87408
1013.561	60.24551
1013.728	11.76656
1013.895	15.98162
1014.063	41.27401
1014.23	-13.52183
1014.397	-24.05762
1014.565	-9.30734
1014.732	-34.5928
1014.899	49.70556
1015.066	26.51971
1015.233	-0.87807
1015.401	43.38186
1015.568	11.76656
1015.735	66.56975
1015.902	15.98162
1016.069	-17.73622
1016.236	43.38186
1016.403	-34.5928
1016.57	7.55158
1016.737	24.41204
1016.904	9.65906
1017.071	-13.52183
1017.238	-30.3788
1017.405	18.08919
1017.572	-5.09275
1017.739	18.08919
1017.906	1.22931
1018.073	15.98162
1018.24	9.65906
1018.407	3.33671
1018.573	15.98162
1018.74	-57.768
1018.907	18.08919
1019.074	-43.0205
1019.241	39.16618
1019.407	37.05838
1019.574	53.92147
1019.741	7.55158
1019.907	-47.2342
1020.074	-55.66129
1020.241	-5.09275
1020.407	-0.87807
1020.574	28.62739
1020.74	83.43541
1020.907	20.19678
1021.073	-5.09275
1021.24	53.92147
1021.406	-34.5928
1021.573	-36.69976
1021.739	5.44413
1021.906	-34.5928
1022.072	-72.51427
1022.239	-43.0205
1022.405	22.3044
1022.571	-47.2342
1022.738	11.76656
1022.904	-59.87469
1023.07	-47.2342
1023.237	20.19678
1023.403	32.84284
1023.569	-76.72725
1023.735	32.84284
1023.902	-5.09275
1024.068	-7.20006
1024.234	39.16618
1024.4	58.13747
1024.566	-51.44779
1024.732	15.98162
1024.898	32.84284
1025.065	66.56975
1025.231	-13.52183
1025.397	11.76656
1025.563	-61.98135
1025.729	5.44413
1025.895	-49.34101
1026.061	47.59764
1026.227	11.76656
1026.392	15.98162
1026.558	-38.8067
1026.724	-5.09275
1026.89	102.41098
1027.056	-104.10916
1027.222	37.05838
1027.388	24.41204
1027.553	28.62739
1027.719	5.44413
1027.885	15.98162
1028.051	43.38186
1028.216	18.08919
1028.382	-0.87807
1028.548	32.84284
1028.713	24.41204
1028.879	-43.0205
1029.045	-34.5928
1029.21	3.33671
1029.376	-0.87807
1029.541	-19.84338
1029.707	20.19678
1029.873	-30.3788
1030.038	7.55158
1030.204	-34.5928
1030.369	-24.05762
1030.534	7.55158
1030.7	15.98162
1030.865	-43.0205
1031.031	15.98162
1031.196	-9.30734
1031.361	-11.4146
1031.527	-15.62904
1031.692	-5.09275
1031.857	-32.48582
1032.023	24.41204
1032.188	41.27401
1032.353	9.65906
1032.518	37.05838
1032.684	-2.98542
1032.849	-34.5928
1033.014	-38.8067
1033.179	26.51971
1033.344	-59.87469
1033.509	-49.34101
1033.674	28.62739
1033.839	-24.05762
1034.004	24.41204
1034.17	-13.52183
1034.335	70.78603
1034.5	24.41204
1034.664	75.0024
1034.829	51.8135
1034.994	51.8135
1035.159	-57.768
1035.324	45.48974
1035.489	28.62739
1035.654	-59.87469
1035.819	-9.30734
1035.984	53.92147
1036.148	-57.768
1036.313	18.08919
1036.478	24.41204
1036.643	-17.73622
1036.807	-9.30734
1036.972	-38.8067
1037.137	-28.27177
1037.301	-7.20006
1037.466	37.05838
1037.631	62.35357
1037.795	15.98162
1037.96	24.41204
1038.124	1.22931
1038.289	-47.2342
1038.454	3.33671
1038.618	66.56975
1038.783	70.78603
1038.947	-0.87807
1039.111	-5.09275
1039.276	66.56975
1039.44	3.33671
1039.605	-40.91361
1039.769	-24.05762
1039.933	-17.73622
1040.098	-9.30734
1040.262	49.70556
1040.426	-70.40773
1040.591	-51.44779
1040.755	39.16618
1040.919	26.51971
1041.083	-34.5928
1041.248	-7.20006
1041.412	-11.4146
1041.576	13.87408
1041.74	1.22931
1041.904	-38.8067
1042.068	-40.91361
1042.232	-24.05762
1042.397	-40.91361
1042.561	-9.30734
1042.725	-9.30734
1042.889	-0.87807
1043.053	75.0024
1043.217	-43.0205
1043.381	-17.73622
1043.544	49.70556
1043.708	-17.73622
1043.872	34.9506
1044.036	20.19678
1044.2	-9.30734
1044.364	-0.87807
1044.528	62.35357
1044.691	-26.16471
1044.855	-34.5928
1045.019	-0.87807
1045.183	30.7351
1045.346	24.41204
1045.51	-43.0205
1045.674	1.22931
1045.837	49.70556
1046.001	-36.69976
1046.165	11.76656
1046.328	-9.30734
1046.492	26.51971
1046.655	-45.12736
1046.819	-68.30117
1046.983	-40.91361
1047.146	-17.73622
1047.31	-74.62077
1047.473	58.13747
1047.636	-7.20006
1047.8	-7.20006
1047.963	68.67788
1048.127	-34.5928
1048.29	1.22931
