Data from mixed_try1_USB4F045381__14__00118.txt Node

Date: Thu Apr 03 20:00:04 EDT 2025
User: mmckonesweet
Spectrometer: USB4F04538
Trigger mode: 4
Integration Time (sec): 2.700000E-3
Scans to average: 1
Electric dark correction enabled: true
Nonlinearity correction enabled: true
Boxcar width: 0
XAxis mode: Wavelengths
Number of Pixels in Spectrum: 3648
>>>>>Begin Spectral Data<<<<<
345.52	-53.90568
345.736	-53.90568
345.952	-53.90568
346.168	34.5993
346.384	38.81488
346.6	11.4153
346.816	-74.97185
347.032	11.4153
347.248	-39.15785
347.464	68.32652
347.68	9.30781
347.896	-45.4785
348.112	-3.33665
348.328	-3.33665
348.544	-7.55127
348.76	62.00222
348.975	11.4153
349.191	7.20034
349.407	85.19233
349.623	-22.3017
349.839	40.92271
350.055	0.87808
350.27	64.1103
350.486	9.30781
350.702	28.27611
350.918	-20.19457
351.133	43.03055
351.349	32.49155
351.565	26.16843
351.781	-32.83698
351.996	0.87808
352.212	59.89417
352.428	80.97574
352.644	19.84552
352.859	9.30781
353.075	-32.83698
353.291	13.52282
353.506	38.81488
353.722	-24.40881
353.938	-24.40881
354.153	-13.87303
354.369	26.16843
354.584	55.67812
354.8	30.38382
355.016	-7.55127
355.231	19.84552
355.447	-3.33665
355.662	15.63036
355.878	9.30781
356.093	0.87808
356.309	-24.40881
356.524	19.84552
356.74	-5.44397
356.955	68.32652
357.171	36.70708
357.386	68.32652
357.602	-5.44397
357.817	-79.18478
358.033	-37.05092
358.248	-18.08741
358.464	19.84552
358.679	-7.55127
358.895	-28.62294
359.11	62.00222
359.325	34.5993
359.541	76.75925
359.756	11.4153
359.972	-37.05092
360.187	0.87808
360.402	24.06077
360.618	-13.87303
360.833	11.4153
361.048	43.03055
361.264	9.30781
361.479	68.32652
361.694	34.5993
361.909	76.75925
362.125	-9.65855
362.34	9.30781
362.555	5.09289
362.77	0.87808
362.986	9.30781
363.201	38.81488
363.416	36.70708
363.631	36.70708
363.847	-20.19457
364.062	34.5993
364.277	-43.37164
364.492	30.38382
364.707	7.20034
364.922	-22.3017
365.138	11.4153
365.353	51.46218
365.568	17.73793
365.783	-15.98024
365.998	53.57014
366.213	0.87808
366.428	-18.08741
366.643	9.30781
366.858	5.09289
367.073	13.52282
367.288	38.81488
367.503	11.4153
367.718	17.73793
367.933	0.87808
368.148	17.73793
368.363	11.4153
368.578	9.30781
368.793	-7.55127
369.008	-7.55127
369.223	9.30781
369.438	-7.55127
369.653	-13.87303
369.868	-13.87303
370.083	59.89417
370.298	-53.90568
370.513	-20.19457
370.728	9.30781
370.943	-37.05092
371.157	47.24632
371.372	53.57014
371.587	-3.33665
371.802	-37.05092
372.017	51.46218
372.232	-20.19457
372.446	53.57014
372.661	51.46218
372.876	-5.44397
373.091	87.30066
373.306	38.81488
373.52	55.67812
373.735	40.92271
373.95	5.09289
374.165	26.16843
374.379	-24.40881
374.594	68.32652
374.809	-41.26476
375.023	57.78613
375.238	30.38382
375.453	36.70708
375.667	57.78613
375.882	28.27611
376.097	5.09289
376.311	32.49155
376.526	70.43467
376.741	-20.19457
376.955	-64.43909
377.17	47.24632
377.384	93.62577
377.599	19.84552
377.813	38.81488
378.028	53.57014
378.242	53.57014
378.457	85.19233
378.672	-7.55127
378.886	45.13842
379.101	93.62577
379.315	53.57014
379.53	-15.98024
379.744	13.52282
379.958	80.97574
380.173	43.03055
380.387	13.52282
380.602	19.84552
380.816	-3.33665
381.031	30.38382
381.245	64.1103
381.459	19.84552
381.674	21.95313
381.888	0.87808
382.103	32.49155
382.317	34.5993
382.531	-5.44397
382.746	21.95313
382.96	51.46218
383.174	38.81488
383.388	68.32652
383.603	-20.19457
383.817	-74.97185
384.031	13.52282
384.246	-47.58533
384.46	0.87808
384.674	19.84552
384.888	-37.05092
385.103	19.84552
385.317	-3.33665
385.531	87.30066
385.745	26.16843
385.959	68.32652
386.174	-13.87303
386.388	19.84552
386.602	13.52282
386.816	-5.44397
387.03	53.57014
387.244	32.49155
387.458	38.81488
387.672	59.89417
387.887	9.30781
388.101	26.16843
388.315	13.52282
388.529	-53.90568
388.743	43.03055
388.957	-13.87303
389.171	-24.40881
389.385	26.16843
389.599	93.62577
389.813	53.57014
390.027	36.70708
390.241	19.84552
390.455	43.03055
390.669	17.73793
390.883	45.13842
391.097	-24.40881
391.311	55.67812
391.525	93.62577
391.738	47.24632
391.952	13.52282
392.166	13.52282
392.38	55.67812
392.594	62.00222
392.808	-20.19457
393.022	-11.7658
393.236	-20.19457
393.449	30.38382
393.663	40.92271
393.877	9.30781
394.091	26.16843
394.305	-18.08741
394.518	76.75925
394.732	62.00222
394.946	30.38382
395.16	-1.2293
395.373	53.57014
395.587	26.16843
395.801	76.75925
396.015	-15.98024
396.228	2.98547
396.442	21.95313
396.656	21.95313
396.869	26.16843
397.083	51.46218
397.297	9.30781
397.51	-3.33665
397.724	5.09289
397.938	-5.44397
398.151	59.89417
398.365	-15.98024
398.578	-58.11912
398.792	26.16843
399.005	-7.55127
399.219	47.24632
399.433	43.03055
399.646	9.30781
399.86	51.46218
400.073	64.1103
400.287	34.5993
400.5	34.5993
400.714	-41.26476
400.927	-7.55127
401.141	-3.33665
401.354	106.2766
401.567	28.27611
401.781	-30.72997
401.994	38.81488
402.208	13.52282
402.421	80.97574
402.635	-13.87303
402.848	70.43467
403.061	30.38382
403.275	-7.55127
403.488	13.52282
403.701	-20.19457
403.915	112.60231
404.128	2.98547
404.341	59.89417
404.555	45.13842
404.768	-15.98024
404.981	9.30781
405.195	24.06077
405.408	-5.44397
405.621	-5.44397
405.834	70.43467
406.048	34.5993
406.261	34.5993
406.474	30.38382
406.687	15.63036
406.9	5.09289
407.114	-108.67238
407.327	-5.44397
407.54	87.30066
407.753	-15.98024
407.966	76.75925
408.179	51.46218
408.392	85.19233
408.605	62.00222
408.819	97.84262
409.032	38.81488
409.245	-24.40881
409.458	9.30781
409.671	34.5993
409.884	-28.62294
410.097	72.54284
410.31	106.2766
410.523	11.4153
410.736	57.78613
410.949	30.38382
411.162	-11.7658
411.375	28.27611
411.588	-9.65855
411.801	102.05957
412.014	9.30781
412.227	45.13842
412.44	74.65103
412.653	13.52282
412.865	51.46218
413.078	43.03055
413.291	51.46218
413.504	-5.44397
413.717	53.57014
413.93	-11.7658
414.143	62.00222
414.356	38.81488
414.568	-11.7658
414.781	-20.19457
414.994	-26.51589
415.207	9.30781
415.42	72.54284
415.632	17.73793
415.845	49.35423
416.058	15.63036
416.271	45.13842
416.483	-30.72997
416.696	11.4153
416.909	26.16843
417.121	-51.79892
417.334	-1.2293
417.547	26.16843
417.759	59.89417
417.972	28.27611
418.185	0.87808
418.397	36.70708
418.61	116.81956
418.823	24.06077
419.035	-15.98024
419.248	17.73793
419.46	34.5993
419.673	-51.79892
419.885	68.32652
420.098	89.40901
420.311	85.19233
420.523	11.4153
420.736	9.30781
420.948	55.67812
421.161	-5.44397
421.373	9.30781
421.586	51.46218
421.798	17.73793
422.01	55.67812
422.223	34.5993
422.435	19.84552
422.648	78.86748
422.86	26.16843
423.073	0.87808
423.285	62.00222
423.497	30.38382
423.71	87.30066
423.922	19.84552
424.134	-20.19457
424.347	19.84552
424.559	-28.62294
424.771	59.89417
424.984	49.35423
425.196	26.16843
425.408	53.57014
425.621	62.00222
425.833	89.40901
426.045	30.38382
426.257	68.32652
426.47	51.46218
426.682	-15.98024
426.894	47.24632
427.106	-30.72997
427.318	28.27611
427.531	51.46218
427.743	28.27611
427.955	-37.05092
428.167	43.03055
428.379	-9.65855
428.591	15.63036
428.804	-41.26476
429.016	68.32652
429.228	-24.40881
429.44	21.95313
429.652	19.84552
429.864	76.75925
430.076	32.49155
430.288	104.16807
430.5	59.89417
430.712	34.5993
430.924	34.5993
431.136	-56.01241
431.348	34.5993
431.56	-37.05092
431.772	-9.65855
431.984	45.13842
432.196	26.16843
432.408	64.1103
432.62	-37.05092
432.832	36.70708
433.044	-53.90568
433.256	-24.40881
433.468	34.5993
433.679	40.92271
433.891	30.38382
434.103	26.16843
434.315	59.89417
434.527	30.38382
434.739	47.24632
434.95	47.24632
435.162	-13.87303
435.374	26.16843
435.586	55.67812
435.798	-91.82295
436.009	21.95313
436.221	-18.08741
436.433	9.30781
436.645	0.87808
436.856	38.81488
437.068	49.35423
437.28	11.4153
437.491	9.30781
437.703	0.87808
437.915	17.73793
438.126	53.57014
438.338	26.16843
438.55	21.95313
438.761	47.24632
438.973	57.78613
439.184	36.70708
439.396	26.16843
439.608	45.13842
439.819	7.20034
440.031	0.87808
440.242	-11.7658
440.454	28.27611
440.665	51.46218
440.877	-7.55127
441.088	34.5993
441.3	13.52282
441.511	-5.44397
441.723	51.46218
441.934	9.30781
442.146	2.98547
442.357	0.87808
442.569	85.19233
442.78	38.81488
442.991	38.81488
443.203	-34.94396
443.414	28.27611
443.626	-24.40881
443.837	7.20034
444.048	30.38382
444.26	59.89417
444.471	76.75925
444.682	-7.55127
444.894	78.86748
445.105	51.46218
445.316	72.54284
445.528	30.38382
445.739	43.03055
445.95	36.70708
446.161	30.38382
446.373	45.13842
446.584	7.20034
446.795	43.03055
447.006	-3.33665
447.217	-7.55127
447.429	70.43467
447.64	-18.08741
447.851	74.65103
448.062	51.46218
448.273	70.43467
448.484	9.30781
448.695	57.78613
448.907	-13.87303
449.118	9.30781
449.329	26.16843
449.54	9.30781
449.751	0.87808
449.962	-15.98024
450.173	11.4153
450.384	15.63036
450.595	34.5993
450.806	11.4153
451.017	28.27611
451.228	38.81488
451.439	15.63036
451.65	-5.44397
451.861	36.70708
452.072	-26.51589
452.283	43.03055
452.494	51.46218
452.705	45.13842
452.915	-18.08741
453.126	127.36306
453.337	5.09289
453.548	76.75925
453.759	26.16843
453.97	-3.33665
454.181	-5.44397
454.391	34.5993
454.602	55.67812
454.813	-32.83698
455.024	53.57014
455.235	43.03055
455.445	123.1456
455.656	-3.33665
455.867	85.19233
456.078	-11.7658
456.288	80.97574
456.499	13.52282
456.71	-24.40881
456.921	-66.54569
457.131	-49.69214
457.342	53.57014
457.553	7.20034
457.763	19.84552
457.974	49.35423
458.184	104.16807
458.395	26.16843
458.606	15.63036
458.816	-34.94396
459.027	0.87808
459.237	30.38382
459.448	59.89417
459.659	78.86748
459.869	34.5993
460.08	5.09289
460.29	34.5993
460.501	30.38382
460.711	24.06077
460.922	0.87808
461.132	-20.19457
461.343	-5.44397
461.553	51.46218
461.764	36.70708
461.974	13.52282
462.184	21.95313
462.395	34.5993
462.605	-56.01241
462.816	-15.98024
463.026	-39.15785
463.236	-11.7658
463.447	34.5993
463.657	45.13842
463.867	64.1103
464.078	34.5993
464.288	76.75925
464.498	28.27611
464.709	53.57014
464.919	59.89417
465.129	34.5993
465.339	72.54284
465.55	-1.2293
465.76	59.89417
465.97	85.19233
466.18	34.5993
466.391	36.70708
466.601	78.86748
466.811	-7.55127
467.021	-34.94396
467.231	28.27611
467.441	30.38382
467.651	43.03055
467.862	-9.65855
468.072	72.54284
468.282	-7.55127
468.492	49.35423
468.702	137.90711
468.912	2.98547
469.122	34.5993
469.332	15.63036
469.542	19.84552
469.752	38.81488
469.962	-20.19457
470.172	2.98547
470.382	-1.2293
470.592	68.32652
470.802	70.43467
471.012	-1.2293
471.222	59.89417
471.432	19.84552
471.642	55.67812
471.852	68.32652
472.062	-9.65855
472.272	21.95313
472.482	-9.65855
472.691	0.87808
472.901	118.92822
473.111	68.32652
473.321	-13.87303
473.531	-7.55127
473.741	15.63036
473.95	32.49155
474.16	62.00222
474.37	-62.33245
474.58	-39.15785
474.79	59.89417
474.999	53.57014
475.209	43.03055
475.419	13.52282
475.628	7.20034
475.838	51.46218
476.048	28.27611
476.258	43.03055
476.467	68.32652
476.677	70.43467
476.886	24.06077
477.096	76.75925
477.306	26.16843
477.515	21.95313
477.725	76.75925
477.935	19.84552
478.144	45.13842
478.354	95.73419
478.563	17.73793
478.773	5.09289
478.982	11.4153
479.192	51.46218
479.401	-49.69214
479.611	59.89417
479.82	36.70708
480.03	85.19233
480.239	62.00222
480.449	51.46218
480.658	-53.90568
480.868	51.46218
481.077	47.24632
481.287	-41.26476
481.496	-7.55127
481.705	-15.98024
481.915	129.47183
482.124	64.1103
482.333	-58.11912
482.543	26.16843
482.752	-7.55127
482.961	43.03055
483.171	93.62577
483.38	68.32652
483.589	9.30781
483.799	43.03055
484.008	72.54284
484.217	62.00222
484.426	34.5993
484.636	43.03055
484.845	40.92271
485.054	59.89417
485.263	-5.44397
485.472	32.49155
485.682	-7.55127
485.891	114.71092
486.1	104.16807
486.309	95.73419
486.518	66.2184
486.727	72.54284
486.936	21.95313
487.146	93.62577
487.355	38.81488
487.564	36.70708
487.773	9.30781
487.982	45.13842
488.191	85.19233
488.4	104.16807
488.609	45.13842
488.818	80.97574
489.027	9.30781
489.236	36.70708
489.445	72.54284
489.654	78.86748
489.863	13.52282
490.072	114.71092
490.281	89.40901
490.49	9.30781
490.698	53.57014
490.907	53.57014
491.116	59.89417
491.325	102.05957
491.534	104.16807
491.743	89.40901
491.952	-13.87303
492.16	93.62577
492.369	5.09289
492.578	129.47183
492.787	80.97574
492.996	118.92822
493.204	7.20034
493.413	83.08402
493.622	34.5993
493.831	93.62577
494.039	38.81488
494.248	121.0369
494.457	59.89417
494.665	0.87808
494.874	30.38382
495.083	152.66967
495.291	45.13842
495.5	102.05957
495.709	-1.2293
495.917	26.16843
496.126	26.16843
496.335	87.30066
496.543	28.27611
496.752	80.97574
496.96	66.2184
497.169	45.13842
497.377	74.65103
497.586	80.97574
497.794	112.60231
498.003	28.27611
498.211	68.32652
498.42	32.49155
498.628	74.65103
498.837	110.49372
499.045	102.05957
499.254	64.1103
499.462	87.30066
499.671	78.86748
499.879	55.67812
500.087	64.1103
500.296	80.97574
500.504	102.05957
500.713	95.73419
500.921	9.30781
501.129	57.78613
501.338	51.46218
501.546	38.81488
501.754	95.73419
501.962	114.71092
502.171	125.25432
502.379	45.13842
502.587	51.46218
502.795	118.92822
503.004	59.89417
503.212	87.30066
503.42	85.19233
503.628	163.21498
503.837	97.84262
504.045	68.32652
504.253	180.08857
504.461	205.40141
504.669	211.73008
504.877	59.89417
505.085	85.19233
505.294	127.36306
505.502	51.46218
505.71	97.84262
505.918	47.24632
506.126	114.71092
506.334	127.36306
506.542	78.86748
506.75	118.92822
506.958	59.89417
507.166	68.32652
507.374	76.75925
507.582	43.03055
507.79	129.47183
507.998	121.0369
508.206	76.75925
508.414	32.49155
508.622	104.16807
508.83	137.90711
509.037	144.23379
509.245	150.56067
509.453	173.76082
509.661	59.89417
509.869	89.40901
510.077	152.66967
510.285	154.77869
510.492	110.49372
510.7	146.34273
510.908	144.23379
511.116	165.32411
511.324	127.36306
511.531	55.67812
511.739	91.51738
511.947	118.92822
512.155	156.88773
512.362	196.96348
512.57	154.77869
512.778	70.43467
512.985	125.25432
513.193	203.2919
513.401	180.08857
513.608	228.60739
513.816	148.45169
514.024	152.66967
514.231	161.10588
514.439	196.96348
514.646	152.66967
514.854	137.90711
515.061	110.49372
515.269	173.76082
515.477	129.47183
515.684	118.92822
515.892	237.04651
516.099	62.00222
516.307	188.52586
516.514	169.54242
516.722	154.77869
516.929	196.96348
517.136	104.16807
517.344	220.16857
517.551	169.54242
517.759	156.88773
517.966	121.0369
518.173	152.66967
518.381	154.77869
518.588	184.30718
518.796	156.88773
519.003	135.79826
519.21	203.2919
519.418	224.38794
519.625	239.15634
519.832	203.2919
520.039	177.9793
520.247	256.03568
520.454	173.76082
520.661	194.85404
520.868	211.73008
521.076	262.36575
521.283	264.47581
521.49	245.48595
521.697	205.40141
521.904	270.8061
522.112	190.63523
522.319	196.96348
522.526	211.73008
522.733	220.16857
522.94	190.63523
523.147	211.73008
523.354	205.40141
523.561	289.79799
523.768	213.83967
523.975	173.76082
524.183	234.9367
524.39	258.14568
524.597	243.37606
524.804	215.94929
525.011	239.15634
525.218	266.58589
525.425	253.9257
525.632	232.82691
525.838	275.02639
526.045	251.81573
526.252	279.24676
526.459	213.83967
526.666	258.14568
526.873	287.68771
527.08	237.04651
527.287	224.38794
527.494	351.00409
527.701	294.01862
527.907	249.70578
528.114	355.22575
528.321	351.00409
528.528	283.46719
528.735	321.45445
528.941	243.37606
529.148	266.58589
529.355	266.58589
529.562	245.48595
529.768	270.8061
529.975	222.27825
530.182	338.33954
530.388	224.38794
530.595	334.11816
530.802	298.23931
531.008	374.22406
531.215	266.58589
531.422	338.33954
531.628	304.5705
531.835	363.66927
532.042	272.91624
532.248	418.55869
532.455	372.11307
532.661	376.33506
532.868	317.23335
533.074	332.0075
533.281	376.33506
533.487	348.89329
533.694	287.68771
533.9	306.68093
534.107	397.44606
534.313	376.33506
534.52	372.11307
534.726	365.78019
534.933	304.5705
535.139	399.55725
535.345	363.66927
535.552	439.67293
535.758	408.00217
535.965	359.44748
536.171	380.55713
536.377	446.00751
536.584	427.0042
536.79	422.78141
536.996	439.67293
537.203	397.44606
537.409	342.56099
537.615	475.57071
537.821	456.56545
538.028	365.78019
538.234	427.0042
538.44	496.6891
538.646	414.33604
538.853	477.68249
539.059	456.56545
539.265	517.80894
539.471	340.45025
539.677	570.61472
539.883	435.44996
540.09	526.25728
540.296	433.33849
540.502	500.91295
540.708	515.69689
540.914	494.57719
541.12	460.78874
541.326	541.04242
541.532	397.44606
541.738	507.24884
541.944	498.80101
542.15	488.24157
542.356	456.56545
542.562	595.96448
542.768	431.22705
542.974	528.3694
543.18	595.96448
543.386	557.94055
543.592	642.44384
543.798	566.38994
544.004	560.05288
544.21	661.45984
544.415	583.28936
544.621	549.49137
544.827	595.96448
545.033	699.49467
545.239	543.15464
545.445	695.26839
545.651	659.3469
545.856	714.28698
546.062	650.89528
546.268	726.96652
546.474	519.921
546.679	650.89528
546.885	591.73939
547.091	600.18963
547.297	638.2182
547.502	659.3469
547.708	657.23398
547.914	644.55668
548.119	682.58984
548.325	672.02469
548.531	619.20341
548.736	710.06055
548.942	600.18963
549.147	792.48349
549.353	665.68575
549.559	824.18863
549.764	640.33102
549.97	777.68849
550.175	796.71072
550.381	849.55422
550.586	811.50632
550.792	809.39263
550.997	777.68849
551.203	771.34792
551.408	781.91558
551.614	762.89398
551.819	817.84743
552.025	912.97357
552.23	752.32677
552.435	889.71896
552.641	925.6583
552.846	855.89582
553.052	813.62002
553.257	951.02856
553.462	866.46532
553.668	872.80712
553.873	809.39263
554.078	980.6285
554.283	923.54416
554.489	984.85717
554.694	957.37129
554.899	980.6285
555.105	849.55422
555.31	989.08586
555.515	965.82836
555.72	1031.37423
555.925	881.26297
556.131	963.71408
556.336	934.11494
556.541	1071.55036
556.746	1035.6032
556.951	972.17123
557.156	1099.04041
557.361	1016.57302
557.567	963.71408
557.772	1109.61373
557.977	1014.45858
558.182	1050.40478
558.387	1008.11532
558.592	1082.12336
558.797	965.82836
559.002	1175.17081
559.207	1065.20663
559.412	1088.46722
559.617	991.20022
559.822	1166.71161
560.027	906.63131
560.232	1189.97456
560.437	1003.88651
560.642	1179.40043
560.847	963.71408
561.051	1240.73153
561.256	1187.85973
561.461	1342.25001
561.666	972.17123
561.871	1236.50171
562.076	1107.49906
562.281	1325.32995
562.485	1168.8264
562.69	1225.92723
562.895	1175.17081
563.1	1274.57045
563.305	1244.96136
563.509	1412.04612
563.714	1149.7934
563.919	1350.71008
564.123	1238.61662
564.328	1278.80036
564.533	1202.66362
564.737	1342.25001
564.942	1325.32995
565.147	1314.75496
565.351	1249.1912
565.556	1327.44495
565.761	1293.60512
565.965	1344.36503
566.17	1101.15507
566.374	1450.11703
566.579	1259.76584
566.784	1244.96136
566.988	1321.09995
567.193	1386.6656
567.397	1225.92723
567.602	1450.11703
567.806	1149.7934
568.011	1551.63908
568.215	1435.31167
568.42	1407.81603
568.624	1369.74532
568.828	1388.78064
569.033	1405.70098
569.237	1530.48879
569.442	1490.303
569.646	1492.41805
569.85	1577.01925
570.055	1720.83457
570.259	1439.54177
570.463	1547.40903
570.668	1452.23208
570.872	1486.0729
571.076	1448.00198
571.281	1513.56849
571.485	1471.26755
571.689	1596.05423
571.893	1577.01925
572.098	1651.04327
572.302	1448.00198
572.506	1674.30739
572.71	1479.72775
572.914	1680.65209
573.119	1471.26755
573.323	1792.73696
573.527	1564.32919
573.731	1682.76698
573.935	1735.63835
574.139	1727.17907
574.343	1513.56849
574.547	1735.63835
574.751	1593.93924
574.955	1773.7044
575.159	1583.36425
575.364	1727.17907
575.568	1593.93924
575.772	1809.6545
575.976	1629.89381
576.18	1780.04862
576.383	1695.45629
576.587	1792.73696
576.791	1820.22782
576.995	1794.85166
577.199	1695.45629
577.403	1828.6864
577.607	1826.57176
577.811	1928.06878
578.015	1803.31045
578.219	1890.0088
578.422	1725.06424
578.626	1970.35549
578.83	1801.19576
579.034	1894.23777
579.238	1752.55675
579.442	2038.00902
579.645	1792.73696
579.849	1991.49793
580.053	1894.23777
580.257	1923.83999
580.46	1835.03028
580.664	2008.41142
580.868	2029.5527
581.071	2008.41142
581.275	1890.0088
581.479	2054.92133
581.682	1794.85166
581.886	2092.97237
582.09	1987.26949
582.293	2092.97237
582.497	1811.76917
582.7	2139.47591
582.904	2073.94715
583.107	2141.58962
583.311	2080.28895
583.515	2249.37773
583.718	2097.20012
583.922	2274.73634
584.125	2069.71924
584.329	2135.24847
584.532	2076.06109
584.735	2236.69794
584.939	2101.42784
585.142	2228.24457
585.346	2082.40288
585.549	2399.39617
585.753	2099.31398
585.956	2462.76889
586.159	2166.95349
586.363	2196.54317
586.566	2116.22461
586.769	2302.20667
586.973	2251.491
587.176	2340.23984
587.379	2092.97237
587.582	2285.30204
587.786	2236.69794
587.989	2300.09362
588.192	2255.71751
588.395	2562.0328
588.599	2380.3825
588.802	2456.43205
589.005	2253.60426
589.208	2566.25623
589.411	2304.3197
589.615	2614.82223
589.818	2281.07579
590.021	2460.65662
590.224	2342.3527
590.427	2479.66664
590.63	2403.62131
590.833	2553.58579
591.036	2524.01982
591.239	2581.03786
591.442	2469.10563
591.645	2532.46747
591.848	2549.36222
592.051	2730.93162
592.254	2412.07148
592.457	2849.11109
592.66	2680.27045
592.863	2747.817
593.066	2557.80932
593.269	2855.44091
593.472	2570.47961
593.675	2680.27045
593.878	2452.20744
594.081	2699.26927
594.284	2606.37643
594.486	2800.57829
594.689	2802.68856
594.892	2832.23095
595.095	2697.15834
595.298	2878.64916
595.5	2714.0454
595.703	2916.62255
595.906	2794.24738
596.109	2825.90067
596.311	2663.38174
596.514	2984.11908
596.717	2735.15305
596.92	2984.11908
597.122	2941.93553
597.325	3047.38307
597.528	2937.71684
597.73	2984.11908
597.933	2855.44091
598.136	2988.3371
598.338	2952.48197
598.541	2908.18443
598.743	2865.99033
598.946	2958.80966
599.148	2984.11908
599.351	2910.29398
599.554	2967.24637
599.756	3247.6253
599.959	2922.95099
600.161	3138.03706
600.363	3005.2086
600.566	3213.91059
600.768	2908.18443
600.971	3093.76783
601.173	3095.87605
601.376	3237.08991
601.578	3083.22651
601.78	3194.94419
601.983	2992.55507
602.185	3102.20061
602.388	3119.06539
602.59	3184.40673
602.792	3074.79317
602.995	3186.51426
603.197	3013.64399
603.399	3131.71331
603.601	3108.52502
603.804	3283.44247
604.006	3110.63313
604.208	3296.08266
604.41	3186.51426
604.613	3325.57403
604.815	3258.16027
605.017	3447.71623
605.219	3230.76847
605.421	3352.95586
605.623	3186.51426
605.826	3451.92697
606.028	3127.49741
606.23	3333.99952
606.432	3220.23242
606.634	3578.21531
606.836	3211.80327
607.038	3369.80475
607.24	3447.71623
607.442	3420.34469
607.644	3357.16819
607.846	3626.6082
608.048	3445.61084
608.25	3447.71623
608.452	3247.6253
608.654	3683.40453
608.856	3264.48105
609.058	3342.42473
609.26	3275.01534
609.462	3502.45019
609.664	3249.73232
609.866	3407.71066
610.067	3296.08266
610.269	3557.17184
610.471	3296.08266
610.673	3523.49845
610.875	3449.82161
611.077	3517.18416
611.278	3506.65999
611.48	3544.54487
611.682	3300.29592
611.884	3681.30121
612.085	3435.08359
612.287	3603.46501
612.489	3435.08359
612.69	3525.60317
612.892	3618.19276
613.094	3565.58945
613.295	3321.36119
613.497	3778.03399
613.699	3578.21531
613.9	3712.849
614.102	3704.43667
614.304	3702.33355
614.505	3599.25692
614.707	3765.419
614.908	3613.98493
615.11	3784.34122
615.311	3559.27627
615.513	3700.2304
615.714	3491.92538
615.916	3742.28969
616.117	3403.49918
616.319	3626.6082
616.52	3523.49845
616.722	3689.71437
616.923	3651.85272
617.124	3771.72658
617.326	3498.24032
617.527	3891.53701
617.729	3536.12652
617.93	3843.20019
618.131	3584.52799
618.333	3733.87845
618.534	3725.4669
618.735	3862.11585
618.937	3738.08411
619.138	3754.90597
619.339	3649.74912
619.54	3870.5223
619.742	3742.28969
619.943	4013.38252
620.144	3599.25692
620.345	3895.73971
620.546	3767.52155
620.748	3935.66136
620.949	3845.30201
621.15	3979.7768
621.351	3653.95631
621.552	3967.1733
621.753	3946.16585
621.954	3956.66983
622.155	3750.70062
622.356	3870.5223
622.558	3725.4669
622.759	3946.16585
622.96	3674.99113
623.161	4204.41422
623.362	3838.99649
623.563	3969.27393
623.764	3878.92842
623.965	4294.62119
624.166	3931.45942
624.366	4080.57818
624.567	3803.26186
624.768	4120.46555
624.969	3731.77559
625.17	4105.77108
625.371	3651.85272
625.572	4055.38229
625.773	3778.03399
625.973	4128.86193
626.174	4082.6777
626.375	3992.37956
626.576	3887.33422
626.777	3956.66983
626.977	3855.81081
627.178	4154.04906
627.379	4057.48206
627.58	3948.26668
627.78	3874.7254
627.981	4015.48271
628.182	3960.87128
628.382	4141.45587
628.583	4078.47864
628.784	4019.68301
628.984	3960.87128
629.185	4365.91952
629.386	4015.48271
629.586	4143.55479
629.787	3845.30201
629.987	4372.20935
630.188	4044.88312
630.388	4212.80723
630.589	4028.08338
630.79	4269.45112
630.99	4053.28249
631.191	4231.69025
631.391	4212.80723
631.591	4170.8388
631.792	4099.47313
631.992	4397.3667
632.193	4237.98421
632.393	4388.98127
632.594	4181.3317
632.794	4479.10639
632.994	4288.32896
633.195	4265.25581
633.395	4214.90542
633.595	4483.29726
633.796	4116.26723
633.996	4273.64635
634.196	4349.14569
634.397	4334.46745
634.597	4105.77108
634.797	4569.1908
634.997	4095.2744
635.198	4321.88526
635.398	4277.84149
635.598	4336.56441
635.798	4086.87668
635.998	4187.62718
636.199	4229.59222
636.399	4632.01606
636.599	4282.03654
636.799	4464.43762
636.999	4256.86493
637.199	4481.20184
637.399	4359.62949
637.599	4617.35863
637.799	4309.30229
637.999	4521.0112
638.199	4193.92248
638.399	4521.0112
638.599	4198.11924
638.799	4598.51175
638.999	4407.84801
639.199	4667.6081
639.399	4474.91542
639.599	4395.27038
639.799	4347.04886
639.999	4682.26177
640.199	4439.28865
640.399	4405.75179
640.599	4162.4441
640.799	4740.86538
640.998	4414.13653
641.198	4648.76606
641.398	4598.51175
641.598	4592.22906
641.798	4516.82112
641.997	4841.2874
642.197	4598.51175
642.397	4418.32877
642.597	4535.6758
642.796	4835.01256
642.996	4468.6288
643.196	4690.63479
643.395	4401.55929
643.595	4642.48498
643.795	4573.37977
643.994	4734.58726
644.194	4506.34552
644.394	4669.70155
644.593	4703.19366
644.793	4893.56974
644.992	4759.69849
645.192	4703.19366
645.392	4801.54327
645.591	4977.19171
645.791	4669.70155
645.99	4958.37997
646.19	4675.98176
646.389	4943.74733
646.589	4740.86538
646.788	4862.20205
646.987	4472.8199
647.187	4922.84161
647.386	4774.3452
647.586	5104.64419
647.785	4657.14053
647.984	5010.63019
648.184	4619.45262
648.383	5025.25766
648.582	4937.47586
648.782	5025.25766
648.981	4657.14053
649.18	5092.1117
649.38	4740.86538
649.579	5069.1333
649.778	4837.10419
649.977	5110.91012
650.177	4814.09494
650.376	4855.92789
650.575	4910.29708
650.774	5029.43674
650.973	4922.84161
651.173	4841.2874
651.372	4828.73751
651.571	4966.74097
651.77	4847.56203
651.969	5044.06276
652.168	4985.55188
652.367	5234.09758
652.566	4893.56974
652.765	5154.76579
652.964	4927.02294
653.163	5165.20611
653.362	4958.37997
653.561	5263.31658
653.76	4966.74097
653.959	5056.59844
654.158	5067.04421
654.357	5158.94199
654.556	5041.97339
654.755	5386.40342
654.954	5083.75624
655.153	5319.65458
655.352	4891.47873
655.551	5375.9755
655.749	5033.61571
655.948	5284.1845
656.147	5229.92306
656.346	5219.48636
656.545	4993.91169
656.743	5296.70412
656.942	5121.35288
657.141	5075.40041
657.34	5081.66732
657.538	5307.1365
657.737	5158.94199
657.936	5434.36431
658.135	5325.9133
658.333	5584.42229
658.532	5018.98888
658.731	5392.6599
658.929	5112.99872
659.128	5213.22405
659.326	5094.20051
659.525	5476.05932
659.724	5041.97339
659.922	5269.5772
660.121	5158.94199
660.319	5392.6599
660.518	5016.89924
660.716	5367.63274
660.915	5098.37805
661.113	5365.54699
661.312	5144.3249
661.51	5409.34279
661.709	5254.96876
661.907	5290.44441
662.105	5302.96362
662.304	5444.78895
662.502	5125.52982
662.701	5446.8738
662.899	5186.08499
663.097	5369.71847
663.296	5288.3578
663.494	5603.17096
663.692	5327.9995
663.891	5574.00555
664.089	5359.2896
664.287	5644.82781
664.485	5375.9755
664.684	5599.00475
664.882	5342.6022
665.08	5453.12823
665.278	5469.80567
665.476	5509.40856
665.675	5317.56829
665.873	5405.17221
666.071	5392.6599
666.269	5613.58605
666.467	5384.31789
666.665	5653.15805
666.863	5332.17182
667.061	5515.66087
667.259	5284.1845
667.457	5467.72107
667.655	5246.62057
667.853	5486.48161
668.051	5238.272
668.249	5517.74493
668.447	5092.1117
668.645	5484.3972
668.843	5342.6022
669.041	5676.06426
669.239	5344.68821
669.437	5571.92213
669.635	5505.24023
669.833	5451.04345
670.031	5509.40856
670.229	5515.66087
670.426	5476.05932
670.624	5788.47151
670.822	5484.3972
671.02	5442.70407
671.218	5486.48161
671.415	5555.25391
671.613	5229.92306
671.811	5601.08787
672.009	5534.41653
672.206	5534.41653
672.404	5419.76884
672.602	5586.50557
672.799	5451.04345
672.997	5809.28011
673.195	5603.17096
673.392	5742.68427
673.59	5463.55181
673.788	5676.06426
673.985	5553.17028
674.183	5624.00056
674.38	5367.63274
674.578	5549.00295
674.775	5409.34279
674.973	5571.92213
675.17	5617.75193
675.368	5742.68427
675.565	5559.42111
675.763	5561.50467
675.96	5286.27116
676.158	5519.82896
676.355	5350.94609
676.553	5655.24055
676.75	5642.74519
676.947	5740.60276
677.145	5509.40856
677.342	5542.75177
677.539	5417.68367
677.737	5703.13155
677.934	5336.34404
678.131	5663.57032
678.329	5528.16486
678.526	5707.2954
678.723	5701.04959
678.92	5646.9104
679.118	5740.60276
679.315	5705.21349
679.512	5465.63645
679.709	5850.89024
679.906	5202.78642
680.104	5744.76575
680.301	5488.56599
680.498	5784.3095
680.695	5492.7347
680.892	5653.15805
681.089	5536.50037
681.286	5634.41448
681.483	5365.54699
681.68	5694.80358
681.877	5428.10925
682.075	5621.91771
682.272	5338.43012
682.469	5626.08339
682.665	5411.42805
682.862	5667.73506
683.059	5517.74493
683.256	5580.25567
683.453	5392.6599
683.65	5646.9104
683.847	5417.68367
684.044	5605.25402
684.241	5415.59849
684.438	5630.24898
684.635	5421.85397
684.831	5563.58821
685.028	5594.83845
685.225	5676.06426
685.422	5367.63274
685.619	5734.35809
685.815	5488.56599
686.012	5705.21349
686.209	5275.83761
686.405	5551.08663
686.602	5323.82709
686.799	5636.49719
686.996	5463.55181
687.192	5615.669
687.389	5250.79471
687.586	5734.35809
687.782	5254.96876
687.979	5601.08787
688.175	5375.9755
688.372	5634.41448
688.568	5332.17182
688.765	5701.04959
688.962	5336.34404
689.158	5601.08787
689.355	5442.70407
689.551	5480.22831
689.748	5421.85397
689.944	5717.7046
690.14	5384.31789
690.337	5636.49719
690.533	5415.59849
690.73	5607.33707
690.926	5467.72107
691.123	5536.50037
691.319	5361.37542
691.515	5551.08663
691.712	5194.43589
691.908	5484.3972
692.104	5317.56829
692.301	5592.75527
692.497	5538.5842
692.693	5586.50557
692.889	5467.72107
693.086	5501.07182
693.282	5417.68367
693.478	5405.17221
693.674	5559.42111
693.87	5584.42229
694.067	5544.83552
694.263	5451.04345
694.459	5330.08567
694.655	5576.08894
694.851	5405.17221
695.047	5488.56599
695.243	5576.08894
695.439	5290.44441
695.635	5125.52982
695.831	5532.33266
696.027	5323.82709
696.224	5663.57032
696.42	5513.57679
696.615	5615.669
696.811	5353.032
697.007	5694.80358
697.203	5288.3578
697.399	5436.44929
697.595	5401.00153
697.791	5344.68821
697.987	5319.65458
698.183	5521.91297
698.379	5142.23665
698.575	5682.31091
698.77	5476.05932
698.966	5609.42009
699.162	5217.39895
699.358	5507.32441
699.554	5438.53424
699.749	5661.48791
699.945	5436.44929
700.141	5580.25567
700.337	5394.74534
700.532	5419.76884
700.728	5165.20611
700.924	5457.29773
701.119	5204.87399
701.315	5498.98757
701.511	5254.96876
701.706	5334.25794
701.902	5175.64584
702.097	5501.07182
702.293	5294.61758
702.489	5244.53346
702.684	5196.52356
702.88	5417.68367
703.075	5403.08688
703.271	5567.75521
703.466	5288.3578
703.662	5384.31789
703.857	5263.31658
704.053	5419.76884
704.248	5453.12823
704.443	5757.25417
704.639	5248.70765
704.834	5440.61916
705.03	5551.08663
705.225	5561.50467
705.42	5459.38245
705.616	5551.08663
705.811	5246.62057
706.006	5569.83868
706.202	5165.20611
706.397	5380.14674
706.592	5317.56829
706.787	5498.98757
706.983	5388.48894
707.178	5534.41653
707.373	5181.9094
707.568	5419.76884
707.763	5186.08499
707.959	5461.46714
708.154	5421.85397
708.349	5476.05932
708.544	5463.55181
708.739	5428.10925
708.934	5194.43589
709.129	5442.70407
709.324	5371.80417
709.519	5642.74519
709.714	5348.86015
709.909	5678.1465
710.104	5280.0111
710.299	5442.70407
710.494	5319.65458
710.689	5394.74534
710.884	5275.83761
711.079	5605.25402
711.274	5219.48636
711.469	5432.27931
711.664	5188.17275
711.859	5319.65458
712.054	5183.99721
712.249	5300.87714
712.443	5294.61758
712.638	5392.6599
712.833	5428.10925
713.028	5563.58821
713.223	5161.03005
713.417	5300.87714
713.612	5240.35918
713.807	5478.14383
714.002	5273.75083
714.196	5330.08567
714.391	5263.31658
714.586	5542.75177
714.78	5336.34404
714.975	5413.51328
715.17	5165.20611
715.364	5526.08092
715.559	5375.9755
715.754	5461.46714
715.948	5252.88175
716.143	5138.06008
716.337	5133.88342
716.532	5476.05932
716.726	5261.22966
716.921	5509.40856
717.115	5062.86598
717.31	5678.1465
717.504	5421.85397
717.699	5413.51328
717.893	5154.76579
718.088	5405.17221
718.282	5196.52356
718.476	5250.79471
718.671	4824.55403
718.865	5415.59849
719.059	5211.13657
719.254	5138.06008
719.448	5039.88401
719.642	5127.61825
719.837	5046.1521
720.031	5148.50132
720.225	5092.1117
720.419	5321.74084
720.614	5232.01033
720.808	5302.96362
721.002	5152.67766
721.196	5025.25766
721.39	5000.1813
721.585	5209.04907
721.779	5056.59844
721.973	5361.37542
722.167	4820.37046
722.361	5238.272
722.555	5016.89924
722.749	5294.61758
722.943	5077.48941
723.137	5002.27112
723.331	4904.0245
723.525	5069.1333
723.719	5050.3307
723.913	5334.25794
724.107	4847.56203
724.301	5342.6022
724.495	4908.20624
724.689	5183.99721
724.883	4916.56945
725.077	5488.56599
725.271	5029.43674
725.465	5133.88342
725.659	4732.49451
725.853	4912.38789
726.046	5183.99721
726.24	5225.74845
726.434	4874.74975
726.628	5215.31151
726.822	4849.65353
727.015	5421.85397
727.209	4876.84095
727.403	5158.94199
727.596	5054.50922
727.79	5225.74845
727.984	5100.46679
728.177	5261.22966
728.371	5098.37805
728.565	5242.44633
728.758	5025.25766
728.952	5323.82709
729.146	5018.98888
729.339	5321.74084
729.533	5018.98888
729.726	5271.66403
729.92	5325.9133
730.113	5121.35288
730.307	5104.64419
730.5	5209.04907
730.694	5169.38207
730.887	5117.17585
731.081	5117.17585
731.274	5112.99872
731.468	5058.68764
731.661	5173.55794
731.854	4983.46187
732.048	5250.79471
732.241	5085.84514
732.435	5183.99721
732.628	5179.82157
732.821	5271.66403
733.014	5098.37805
733.208	5238.272
733.401	5096.28929
733.594	5090.02287
733.788	5188.17275
733.981	5188.17275
734.174	5350.94609
734.367	5300.87714
734.56	5204.87399
734.754	5309.2229
734.947	5142.23665
735.14	5348.86015
735.333	5133.88342
735.526	5154.76579
735.719	4889.38768
735.912	5112.99872
736.105	5204.87399
736.298	5152.67766
736.491	4975.10161
736.684	5202.78642
736.877	5177.73372
737.07	5336.34404
737.263	5058.68764
737.456	5467.72107
737.649	5179.82157
737.842	5342.6022
738.035	5129.70666
738.228	5325.9133
738.421	5046.1521
738.614	5083.75624
738.807	5127.61825
739	5200.69882
739.192	5229.92306
739.385	5016.89924
739.578	4977.19171
739.771	5181.9094
739.964	5060.77682
740.156	5227.83576
740.349	5056.59844
740.542	5300.87714
740.735	5098.37805
740.927	5227.83576
741.12	5060.77682
741.313	5284.1845
741.505	5181.9094
741.698	5202.78642
741.891	5023.16809
742.083	5075.40041
742.276	4958.37997
742.468	5035.70517
742.661	5021.0785
742.854	4858.0193
743.046	5100.46679
743.239	5112.99872
743.431	5221.57374
743.624	5037.7946
743.816	4843.37896
744.009	5067.04421
744.201	4832.9209
744.393	4929.11357
744.586	4916.56945
744.778	5079.57837
744.971	4950.0186
745.163	5110.91012
745.355	4991.82177
745.548	5041.97339
745.74	5150.5895
745.932	5100.46679
746.125	5046.1521
746.317	5227.83576
746.509	4684.35506
746.702	5211.13657
746.894	5018.98888
747.086	5215.31151
747.278	5165.20611
747.471	5050.3307
747.663	5056.59844
747.855	5085.84514
748.047	5002.27112
748.239	5033.61571
748.431	4910.29708
748.623	5075.40041
748.815	5037.7946
749.008	5041.97339
749.2	5100.46679
749.392	5029.43674
749.584	4924.93229
749.776	4998.09145
749.968	4950.0186
750.16	5008.54046
750.352	4968.83117
750.544	5133.88342
750.736	5000.1813
750.928	4901.93359
751.12	4835.01256
751.311	5021.0785
751.503	5077.48941
751.695	5087.93402
751.887	5031.52624
752.079	5108.8215
752.271	4866.38471
752.463	4897.75171
752.654	4964.65076
752.846	4924.93229
753.038	4851.74501
753.23	5008.54046
753.421	4866.38471
753.613	5163.11809
753.805	4837.10419
753.997	5052.41997
754.188	4975.10161
754.38	4876.84095
754.572	4935.38532
754.763	5106.73286
754.955	4914.47868
755.146	4853.83646
755.338	4786.89863
755.53	4673.88838
755.721	4598.51175
755.913	4761.79094
756.104	4812.00305
756.296	4868.476
756.487	4569.1908
756.679	4701.10057
756.87	4726.21613
757.062	4759.69849
757.253	4862.20205
757.445	4717.84464
757.636	4816.1868
757.827	4699.00746
758.019	4726.21613
758.21	4799.45125
758.401	4590.13478
758.593	4820.37046
758.784	4678.07512
758.975	4753.42099
759.167	4558.71797
759.358	4732.49451
759.549	4575.47423
759.74	4577.56866
759.932	4514.72604
760.123	4531.48603
760.314	4435.09685
760.505	4562.90717
760.696	4608.98246
760.888	4722.03043
761.079	4552.43401
761.27	4858.0193
761.461	4650.85971
761.652	4594.32331
761.843	4506.34552
762.034	4684.35506
762.225	4470.72436
762.416	4701.10057
762.607	4590.13478
762.798	4598.51175
762.989	4619.45262
763.18	4707.37976
763.371	4581.75746
763.562	4732.49451
763.753	4489.58342
763.944	4600.60594
764.135	4560.81258
764.326	4732.49451
764.517	4699.00746
764.708	4761.79094
764.899	4340.75825
765.089	4531.48603
765.28	4248.47372
765.471	4472.8199
765.662	4133.05999
765.853	4447.67199
766.043	4221.19989
766.234	4407.84801
766.425	4273.64635
766.615	4550.33931
766.806	4303.01052
766.997	4439.28865
767.187	4342.85514
767.378	4521.0112
767.569	4221.19989
767.759	4298.8159
767.95	4416.23266
768.141	4399.46301
768.331	4349.14569
768.522	4290.42639
768.712	4313.4967
768.903	4355.43604
769.093	4172.93742
769.284	4328.17645
769.474	4145.65369
769.665	4036.48341
769.855	4147.75256
770.046	4313.4967
770.236	4214.90542
770.426	4212.80723
770.617	4105.77108
770.807	4105.77108
770.998	4256.86493
771.188	4097.37378
771.378	4120.46555
771.569	4120.46555
771.759	3996.58031
771.949	4214.90542
772.139	4149.85141
772.33	4158.24662
772.52	3990.27915
772.71	4221.19989
772.9	4004.98158
773.09	4030.18342
773.281	4036.48341
773.471	4091.07558
773.661	3828.4869
773.851	3939.86322
774.041	4019.68301
774.231	4204.41422
774.421	3954.56907
774.611	4028.08338
774.802	3969.27393
774.992	4217.0036
775.182	3889.43562
775.372	4183.43021
775.562	3918.85313
775.752	4137.25798
775.942	3803.26186
776.131	3885.2328
776.321	3666.57743
776.511	3860.01419
776.701	3725.4669
776.891	3979.7768
777.081	3836.89462
777.271	4105.77108
777.461	3904.14487
777.651	3977.67626
777.84	3738.08411
778.03	4002.8813
778.22	3918.85313
778.41	4078.47864
778.599	3855.81081
778.789	4074.27949
778.979	3786.44359
779.169	3691.81762
779.358	3763.31643
779.548	3969.27393
779.738	3580.31955
779.927	4046.98299
780.117	3799.05741
780.307	4055.38229
780.496	3769.62407
780.686	3971.37455
780.875	3792.75059
781.065	3872.62386
781.254	3555.06739
781.444	3927.25741
781.633	3635.02335
781.823	3733.87845
782.012	3744.39245
782.202	3761.21384
782.391	3552.96292
782.581	3653.95631
782.77	3542.44031
782.96	3677.09451
783.149	3609.77702
783.338	3664.47396
783.528	3548.75393
783.717	3805.36406
783.906	3719.15803
784.096	3744.39245
784.285	3712.849
784.474	3525.60317
784.663	3447.71623
784.853	3565.58945
785.042	3546.64941
785.231	3464.55875
785.42	3363.48655
785.61	3607.67303
785.799	3641.3345
785.988	3725.4669
786.177	3647.64549
786.366	3658.16343
786.555	3498.24032
786.744	3571.90246
786.933	3245.51825
787.122	3529.81257
787.312	3460.34823
787.501	3359.27433
787.69	3245.51825
787.879	3468.7692
788.068	3315.04179
788.257	3247.6253
788.445	3093.76783
788.634	3466.66398
788.823	3371.91079
789.012	3363.48655
789.201	3277.12215
789.39	3536.12652
789.579	3264.48105
789.768	3472.97958
789.957	3340.31846
790.145	3483.50521
790.334	3256.05331
790.523	3333.99952
790.712	3310.82877
790.9	3441.39999
791.089	3171.76124
791.278	3504.5551
791.467	3207.5886
791.655	3340.31846
791.844	3169.6536
792.033	3224.44689
792.221	3017.86159
792.41	3220.23242
792.599	3213.91059
792.787	3344.53099
792.976	3180.19163
793.164	3291.86933
793.353	3106.4169
793.541	3262.37414
793.73	3173.86886
793.918	3329.78681
794.107	3144.36066
794.295	3304.50911
794.484	3125.38943
794.672	3357.16819
794.861	3157.00742
795.049	3216.01788
795.238	3097.98425
795.426	3287.65594
795.614	3163.33058
795.803	3397.18182
795.991	3038.94867
796.179	3218.12516
796.368	3060.03421
796.556	3264.48105
796.744	3131.71331
796.932	3331.89318
797.121	3079.00987
797.309	3232.87564
797.497	3047.38307
797.685	3142.25281
797.874	3017.86159
798.062	3095.87605
798.25	2882.86866
798.438	3038.94867
798.626	2933.4981
798.814	3237.08991
799.002	2925.06044
799.19	3182.29919
799.378	2931.38871
799.566	2952.48197
799.755	3047.38307
799.943	3104.30876
800.131	2975.68285
800.318	3171.76124
800.506	2946.15415
800.694	3234.98278
800.882	3000.99082
801.07	2996.77297
801.258	2992.55507
801.446	3070.5764
801.634	2944.04484
801.822	2969.35551
802.01	2988.3371
802.197	3169.6536
802.385	2764.70153
802.573	3049.49164
802.761	2956.70045
802.949	3129.60537
803.136	2941.93553
803.324	3138.03706
803.512	2960.91886
803.699	3024.18787
803.887	2785.80598
804.075	3085.3348
804.262	2977.79193
804.45	3076.90152
804.638	2925.06044
804.825	3030.51402
805.013	2925.06044
805.201	3211.80327
805.388	3022.07913
805.576	3171.76124
805.763	2965.13722
805.951	3340.31846
806.138	2946.15415
806.326	3127.49741
806.513	3182.29919
806.701	3173.86886
806.888	2979.90099
807.075	3119.06539
807.263	3017.86159
807.45	3133.82125
807.638	3024.18787
807.825	3374.0168
808.012	2975.68285
808.2	3038.94867
808.387	2992.55507
808.574	3053.70871
808.761	3074.79317
808.949	3285.54921
809.136	2933.4981
809.323	3300.29592
809.51	2916.62255
809.698	3169.6536
809.885	2939.82619
810.072	3205.48124
810.259	3030.51402
810.446	3036.84003
810.633	3055.81723
810.82	3085.3348
811.008	3038.94867
811.195	3211.80327
811.382	3068.46799
811.569	3178.08406
811.756	2958.80966
811.943	3169.6536
812.13	3159.11516
812.317	3218.12516
812.504	2994.66403
812.691	3287.65594
812.878	3161.22288
813.064	3239.19702
813.251	3207.5886
813.438	3374.0168
813.625	3129.60537
813.812	3135.92916
813.999	3068.46799
814.186	3224.44689
814.372	2922.95099
814.559	3205.48124
814.746	2958.80966
814.933	3144.36066
815.12	3228.6613
815.306	3239.19702
815.493	2933.4981
815.68	3163.33058
815.866	2992.55507
816.053	3308.72223
816.24	3182.29919
816.426	3060.03421
816.613	3017.86159
816.799	3114.84929
816.986	3047.38307
817.173	3135.92916
817.359	2868.10017
817.546	3173.86886
817.732	2817.46009
817.919	3076.90152
818.105	2958.80966
818.292	3068.46799
818.478	3129.60537
818.665	3186.51426
818.851	2952.48197
819.037	3076.90152
819.224	3034.73138
819.41	3041.0573
819.597	2859.66072
819.783	3114.84929
819.969	3005.2086
820.156	3051.60018
820.342	3000.99082
820.528	3216.01788
820.714	3017.86159
820.901	3055.81723
821.087	2887.0881
821.273	3190.72926
821.459	2929.2793
821.646	3154.89967
821.832	2979.90099
822.018	3285.54921
822.204	2798.468
822.39	2914.51304
822.576	2925.06044
822.762	2937.71684
822.948	3030.51402
823.134	3043.1659
823.32	2865.99033
823.507	3097.98425
823.693	2851.22105
823.879	2832.23095
824.065	3011.53516
824.25	3043.1659
824.436	2783.6956
824.622	3043.1659
824.808	2819.57026
824.994	3036.84003
825.18	2832.23095
825.366	3000.99082
825.552	2688.7145
825.738	2944.04484
825.923	2730.93162
826.109	2969.35551
826.295	2623.26783
826.481	2804.79882
826.667	2682.38148
826.852	2954.59122
827.038	2663.38174
827.224	2954.59122
827.409	2749.92762
827.595	2735.15305
827.781	2593.70736
827.966	2697.15834
828.152	2771.03301
828.338	2688.7145
828.523	2764.70153
828.709	2747.817
828.894	2741.48509
829.08	2733.04234
829.266	2792.13705
829.451	3030.51402
829.637	2680.27045
829.822	2815.34992
830.008	2716.15622
830.193	2733.04234
830.378	2581.03786
830.564	2832.23095
830.749	2699.26927
830.935	2659.15944
831.12	2426.85886
831.305	2650.71468
831.491	2401.50875
831.676	2743.59574
831.861	2654.93708
832.047	2625.3792
832.232	2462.76889
832.417	2627.49056
832.602	2608.48789
832.788	2581.03786
832.973	2498.67575
833.158	2460.65662
833.343	2473.33006
833.528	2695.0474
833.714	2610.59935
833.899	2718.26703
834.084	2530.35557
834.269	2536.69123
834.454	2437.42096
834.639	2507.12396
834.824	2469.10563
835.009	2547.25042
835.194	2314.88474
835.379	2690.82548
835.564	2405.73387
835.749	2604.26494
835.934	2384.60783
836.119	2393.05837
836.304	2390.94575
836.489	2534.57935
836.674	2232.47127
836.859	2418.40899
837.044	2319.11069
837.228	2386.72048
837.413	2308.54575
837.598	2367.70627
837.783	2312.77175
837.968	2551.47401
838.152	2338.12697
838.337	2570.47961
838.522	2308.54575
838.707	2441.64572
838.891	2158.49899
839.076	2293.75443
839.261	2217.67765
839.445	2443.75809
839.63	2200.77014
839.815	2418.40899
839.999	2266.28362
840.184	2257.83075
840.368	2105.65552
840.553	2350.80405
840.737	2240.92457
840.922	2312.77175
841.106	2071.8332
841.291	2278.96265
841.475	2048.57927
841.66	2304.3197
841.844	2171.18068
842.029	2226.1312
842.213	1940.75504
842.397	2272.62317
842.582	2226.1312
842.766	2473.33006
842.951	2131.021
843.135	2150.04437
843.319	1997.84054
843.504	2105.65552
843.688	2014.75388
843.872	2217.67765
844.056	2097.20012
844.241	2190.20267
844.425	2057.03534
844.609	2095.08625
844.793	2054.92133
844.977	2234.58461
845.161	2004.18309
845.346	2080.28895
845.53	1978.81254
845.714	2333.9012
845.898	1921.72558
846.082	2253.60426
846.266	1951.32677
846.45	2103.54168
846.634	1915.38232
846.818	2004.18309
847.002	1913.26789
847.186	1959.78404
847.37	2004.18309
847.554	2035.89495
847.738	1995.72634
847.922	1906.92457
848.106	2029.5527
848.29	2012.63973
848.473	1906.92457
848.657	1938.64068
848.841	1752.55675
849.025	2023.21039
849.209	1767.36015
849.392	1989.38371
849.576	1843.48873
849.76	1864.63452
849.944	1837.1449
850.127	1851.94711
850.311	1722.94941
850.495	1972.46976
850.678	1632.00877
850.862	1860.4054
851.046	1788.50753
851.229	1860.4054
851.413	1674.30739
851.596	1839.25952
851.78	1769.4749
851.964	1936.52631
852.147	1615.08906
852.331	1775.81915
852.514	1708.14549
852.698	1820.22782
852.881	1741.98278
853.065	1847.71793
853.248	1794.85166
853.431	1877.32175
853.615	1674.30739
853.798	1980.92679
853.982	1712.3752
854.165	1826.57176
854.348	1524.14369
854.532	1805.42514
854.715	1511.45345
854.898	1720.83457
855.081	1629.89381
855.265	1796.96637
855.448	1574.90424
855.631	1796.96637
855.814	1477.6127
855.997	1729.2939
856.181	1454.34714
856.364	1653.1582
856.547	1678.53719
856.73	1627.77886
856.913	1500.87823
857.096	1710.26034
857.279	1488.18795
857.462	1543.17898
857.645	1454.34714
857.828	1881.55079
858.011	1490.303
858.194	1659.50299
858.377	1509.33841
858.56	1678.53719
858.743	1390.89568
858.926	1623.54893
859.109	1407.81603
859.292	1462.80734
859.475	1420.50631
859.658	1456.46219
859.841	1283.03028
860.023	1416.27622
860.206	1386.6656
860.389	1357.05515
860.572	1388.78064
860.755	1416.27622
860.937	1327.44495
861.12	1428.96651
861.303	1295.7201
861.486	1412.04612
861.668	1225.92723
861.851	1471.26755
862.034	1221.69745
862.216	1462.80734
862.399	1219.58257
862.581	1420.50631
862.764	1234.38681
862.947	1407.81603
863.129	1232.27191
863.312	1437.42672
863.494	1082.12336
863.677	1354.94013
863.859	1052.51931
864.042	1259.76584
864.224	1151.90816
864.406	1200.54877
864.589	1065.20663
864.771	1361.2852
864.954	1073.66495
865.136	1240.73153
865.318	1077.89414
865.501	1168.8264
865.683	1132.87545
865.865	1230.15701
866.048	972.17123
866.23	1132.87545
866.412	1014.45858
866.594	1183.63007
866.777	1124.41658
866.959	1145.56388
867.141	1134.99018
867.323	1196.31908
867.505	1031.37423
867.687	1158.25247
867.869	1103.26973
868.052	1363.40023
868.234	1048.29025
868.416	1219.58257
868.598	1016.57302
868.78	1118.07247
868.962	1166.71161
869.144	1137.10491
869.326	957.37129
869.508	1096.92576
869.69	999.65772
869.872	1132.87545
870.054	974.28554
870.236	1090.58185
870.417	997.54333
870.599	1084.23797
870.781	1006.00091
870.963	1103.26973
871.145	963.71408
871.327	1056.7484
871.508	1006.00091
871.69	1204.77848
871.872	1027.14528
872.054	1253.42105
872.235	887.60495
872.417	1158.25247
872.599	925.6583
872.78	1006.00091
872.962	1003.88651
873.144	1126.53129
873.325	1054.63385
873.507	1192.08939
873.689	1016.57302
873.87	1143.44913
874.052	1050.40478
874.233	1115.95778
874.415	1065.20663
874.596	1168.8264
874.778	974.28554
874.959	1063.09206
875.141	1069.43578
875.322	1160.36725
875.503	938.3433
875.685	1215.35281
875.866	1069.43578
876.048	1003.88651
876.229	929.8866
876.41	1001.77211
876.592	866.46532
876.773	927.77245
876.954	955.25704
877.136	1069.43578
877.317	957.37129
877.498	1092.69648
877.679	900.28912
877.86	1105.38439
878.042	900.28912
878.223	967.94264
878.404	972.17123
878.585	1075.77955
878.766	1103.26973
878.947	1132.87545
879.128	889.71896
879.309	1035.6032
879.49	1120.18717
879.672	1016.57302
879.853	929.8866
880.034	1090.58185
880.215	1012.34416
880.396	991.20022
880.576	974.28554
880.757	1022.91636
880.938	1065.20663
881.119	1206.89334
881.3	974.28554
881.481	1101.15507
881.662	1010.22973
881.843	1217.46769
882.023	1014.45858
882.204	1056.7484
882.385	989.08586
882.566	1077.89414
882.747	1016.57302
882.927	1221.69745
883.108	986.97151
883.289	1234.38681
883.469	1014.45858
883.65	1101.15507
883.831	976.39985
884.011	1124.41658
884.192	967.94264
884.373	1128.646
884.553	972.17123
884.734	1194.20423
884.914	991.20022
885.095	1259.76584
885.275	934.11494
885.456	1219.58257
885.636	1041.9467
885.817	1189.97456
885.997	1181.51525
886.178	1166.71161
886.358	1056.7484
886.538	1251.30612
886.719	1101.15507
886.899	1204.77848
887.08	1014.45858
887.26	1099.04041
887.44	1094.81112
887.621	1160.36725
887.801	1090.58185
887.981	1365.51526
888.161	1018.68746
888.342	1160.36725
888.522	1128.646
888.702	1179.40043
888.882	1168.8264
889.062	1225.92723
889.242	1096.92576
889.423	1141.33439
889.603	970.05694
889.783	1164.59682
889.963	1022.91636
890.143	1069.43578
890.323	1006.00091
890.503	1236.50171
890.683	1099.04041
890.863	1067.3212
891.043	989.08586
891.223	1156.1377
891.403	1006.00091
891.583	1137.10491
891.763	1048.29025
891.943	1213.23794
892.122	1022.91636
892.302	1065.20663
892.482	1107.49906
892.662	1145.56388
892.842	980.6285
893.022	1027.14528
893.201	982.74283
893.381	1090.58185
893.561	961.59981
893.741	1075.77955
893.92	908.74539
894.1	1141.33439
894.28	999.65772
894.459	1039.83219
894.639	982.74283
894.819	1082.12336
894.998	915.08767
895.178	1099.04041
895.357	847.44038
895.537	1090.58185
895.716	904.51724
895.896	1158.25247
896.075	955.25704
896.255	1090.58185
896.434	858.0097
896.614	999.65772
896.793	997.54333
896.973	953.1428
897.152	887.60495
897.331	1041.9467
897.511	830.52991
897.69	965.82836
897.87	938.3433
898.049	963.71408
898.228	906.63131
898.407	948.91433
898.587	915.08767
898.766	967.94264
898.945	915.08767
899.124	883.37696
899.304	845.32654
899.483	851.66808
899.662	695.26839
899.841	900.28912
900.02	781.91558
900.199	836.87127
900.378	815.73372
900.557	870.69318
900.737	838.98507
900.916	932.00077
901.095	743.87318
901.274	737.53311
901.453	676.25072
901.632	796.71072
901.811	676.25072
901.989	754.44019
902.168	638.2182
902.347	743.87318
902.526	680.47679
902.705	686.81598
902.884	633.9926
903.063	659.3469
903.242	779.80203
903.42	743.87318
903.599	591.73939
903.778	701.60782
903.957	691.04216
904.135	710.06055
904.314	587.51435
904.493	720.6267
904.672	737.53311
904.85	621.31611
905.029	505.13686
905.207	636.1054
905.386	591.73939
905.565	684.7029
905.743	450.23064
905.922	549.49137
906.1	524.14517
906.279	568.50232
906.457	424.8928
906.636	553.71593
906.814	560.05288
906.993	532.59368
907.171	500.91295
907.35	566.38994
907.528	473.45896
907.707	541.04242
907.885	454.45383
908.063	511.47284
908.242	450.23064
908.42	399.55725
908.598	511.47284
908.777	477.68249
908.955	465.01208
909.133	433.33849
909.311	370.00209
909.49	397.44606
909.668	410.11344
909.846	410.11344
910.024	374.22406
910.202	435.44996
910.38	340.45025
910.559	418.55869
910.737	389.00146
910.915	490.35343
911.093	437.56144
911.271	448.11907
911.449	507.24884
911.627	496.6891
911.805	490.35343
911.983	566.38994
912.161	399.55725
912.339	555.82823
912.517	500.91295
912.695	515.69689
912.872	498.80101
913.05	456.56545
913.228	376.33506
913.406	507.24884
913.584	503.0249
913.762	500.91295
913.939	462.9004
914.117	435.44996
914.295	473.45896
914.473	418.55869
914.65	422.78141
914.828	492.4653
915.006	498.80101
915.184	456.56545
915.361	389.00146
915.539	583.28936
915.716	346.78251
915.894	507.24884
916.072	370.00209
916.249	321.45445
916.427	454.45383
916.604	473.45896
916.782	359.44748
916.959	420.67004
917.137	431.22705
917.314	429.11561
917.492	344.67174
917.669	469.23549
917.847	374.22406
918.024	443.89597
918.201	365.78019
918.379	393.22373
918.556	397.44606
918.733	323.56502
918.911	355.22575
919.088	359.44748
919.265	433.33849
919.442	422.78141
919.62	319.34389
919.797	465.01208
919.974	391.11258
920.151	329.89685
920.328	429.11561
920.506	380.55713
920.683	334.11816
920.86	355.22575
921.037	272.91624
921.214	376.33506
921.391	325.67561
921.568	391.11258
921.745	346.78251
921.922	298.23931
922.099	289.79799
922.276	490.35343
922.453	355.22575
922.63	355.22575
922.807	300.34969
922.984	374.22406
923.161	262.36575
923.338	304.5705
923.514	247.59586
923.691	355.22575
923.868	287.68771
924.045	296.12896
924.222	245.48595
924.399	296.12896
924.575	277.13656
924.752	291.9083
924.929	279.24676
925.105	291.9083
925.282	287.68771
925.459	304.5705
925.635	281.35697
925.812	329.89685
925.989	262.36575
926.165	319.34389
926.342	253.9257
926.518	346.78251
926.695	285.57744
926.871	275.02639
927.048	256.03568
927.224	211.73008
927.401	226.49765
927.577	264.47581
927.754	285.57744
927.93	315.12283
928.107	300.34969
928.283	336.22884
928.459	266.58589
928.636	287.68771
928.812	256.03568
928.988	230.71714
929.165	270.8061
929.341	211.73008
929.517	188.52586
929.693	234.9367
929.87	222.27825
930.046	283.46719
930.222	256.03568
930.398	165.32411
930.574	169.54242
930.751	148.45169
930.927	156.88773
931.103	194.85404
931.279	228.60739
931.455	173.76082
931.631	245.48595
931.807	266.58589
931.983	110.49372
932.159	184.30718
932.335	211.73008
932.511	144.23379
932.687	158.99679
932.863	180.08857
933.039	85.19233
933.215	112.60231
933.391	163.21498
933.566	196.96348
933.742	142.12488
933.918	241.26619
934.094	171.65161
934.27	220.16857
934.445	152.66967
934.621	175.87005
934.797	230.71714
934.973	173.76082
935.148	163.21498
935.324	91.51738
935.5	144.23379
935.675	152.66967
935.851	85.19233
936.027	135.79826
936.202	76.75925
936.378	76.75925
936.553	87.30066
936.729	57.78613
936.904	99.95108
937.08	80.97574
937.255	97.84262
937.431	118.92822
937.606	72.54284
937.782	80.97574
937.957	72.54284
938.133	140.01598
938.308	131.58062
938.483	106.2766
938.659	95.73419
938.834	89.40901
939.009	64.1103
939.185	99.95108
939.36	49.35423
939.535	51.46218
939.71	78.86748
939.886	144.23379
940.061	43.03055
940.236	34.5993
940.411	104.16807
940.586	68.32652
940.761	108.38515
940.937	95.73419
941.112	85.19233
941.287	85.19233
941.462	26.16843
941.637	70.43467
941.812	43.03055
941.987	5.09289
942.162	76.75925
942.337	127.36306
942.512	-9.65855
942.687	2.98547
942.862	53.57014
943.037	118.92822
943.212	-22.3017
943.386	72.54284
943.561	64.1103
943.736	21.95313
943.911	45.13842
944.086	102.05957
944.26	55.67812
944.435	13.52282
944.61	93.62577
944.785	70.43467
944.959	53.57014
945.134	64.1103
945.309	40.92271
945.483	-15.98024
945.658	51.46218
945.833	64.1103
946.007	110.49372
946.182	24.06077
946.357	64.1103
946.531	55.67812
946.706	-22.3017
946.88	21.95313
947.055	9.30781
947.229	45.13842
947.404	114.71092
947.578	66.2184
947.752	11.4153
947.927	-5.44397
948.101	59.89417
948.276	89.40901
948.45	112.60231
948.624	62.00222
948.799	137.90711
948.973	19.84552
949.147	2.98547
949.321	38.81488
949.496	95.73419
949.67	89.40901
949.844	34.5993
950.018	68.32652
950.193	53.57014
950.367	95.73419
950.541	-1.2293
950.715	59.89417
950.889	43.03055
951.063	93.62577
951.237	34.5993
951.411	43.03055
951.585	21.95313
951.759	28.27611
951.933	19.84552
952.107	93.62577
952.281	114.71092
952.455	17.73793
952.629	28.27611
952.803	72.54284
952.977	49.35423
953.151	43.03055
953.325	38.81488
953.499	51.46218
953.672	95.73419
953.846	43.03055
954.02	57.78613
954.194	38.81488
954.368	11.4153
954.541	43.03055
954.715	34.5993
954.889	40.92271
955.062	17.73793
955.236	57.78613
955.41	-3.33665
955.583	72.54284
955.757	135.79826
955.93	34.5993
956.104	64.1103
956.278	76.75925
956.451	102.05957
956.625	70.43467
956.798	102.05957
956.972	51.46218
957.145	76.75925
957.319	-3.33665
957.492	85.19233
957.665	80.97574
957.839	118.92822
958.012	21.95313
958.185	89.40901
958.359	68.32652
958.532	-11.7658
958.705	76.75925
958.879	93.62577
959.052	62.00222
959.225	11.4153
959.398	129.47183
959.572	36.70708
959.745	53.57014
959.918	26.16843
960.091	11.4153
960.264	26.16843
960.438	51.46218
960.611	45.13842
960.784	17.73793
960.957	91.51738
961.13	62.00222
961.303	70.43467
961.476	104.16807
961.649	68.32652
961.822	62.00222
961.995	0.87808
962.168	11.4153
962.341	89.40901
962.514	59.89417
962.686	51.46218
962.859	51.46218
963.032	-22.3017
963.205	64.1103
963.378	49.35423
963.551	34.5993
963.723	97.84262
963.896	51.46218
964.069	93.62577
964.242	9.30781
964.414	40.92271
964.587	133.68943
964.76	118.92822
964.932	59.89417
965.105	97.84262
965.278	76.75925
965.45	45.13842
965.623	43.03055
965.795	43.03055
965.968	-7.55127
966.14	43.03055
966.313	38.81488
966.485	85.19233
966.658	47.24632
966.83	13.52282
967.003	-20.19457
967.175	19.84552
967.348	24.06077
967.52	72.54284
967.692	49.35423
967.865	51.46218
968.037	95.73419
968.209	-13.87303
968.382	66.2184
968.554	53.57014
968.726	34.5993
968.898	66.2184
969.071	5.09289
969.243	51.46218
969.415	68.32652
969.587	13.52282
969.759	49.35423
969.932	55.67812
970.104	64.1103
970.276	34.5993
970.448	43.03055
970.62	53.57014
970.792	85.19233
970.964	38.81488
971.136	53.57014
971.308	80.97574
971.48	15.63036
971.652	64.1103
971.824	30.38382
971.996	9.30781
972.168	68.32652
972.339	43.03055
972.511	-41.26476
972.683	57.78613
972.855	93.62577
973.027	66.2184
973.199	62.00222
973.37	26.16843
973.542	11.4153
973.714	87.30066
973.886	43.03055
974.057	34.5993
974.229	102.05957
974.401	-5.44397
974.572	59.89417
974.744	26.16843
974.915	76.75925
975.087	55.67812
975.259	43.03055
975.43	59.89417
975.602	57.78613
975.773	87.30066
975.945	112.60231
976.116	91.51738
976.288	-56.01241
976.459	85.19233
976.63	78.86748
976.802	89.40901
976.973	26.16843
977.145	57.78613
977.316	102.05957
977.487	13.52282
977.659	26.16843
977.83	47.24632
978.001	76.75925
978.172	53.57014
978.344	9.30781
978.515	-72.86535
978.686	11.4153
978.857	97.84262
979.028	-26.51589
979.2	43.03055
979.371	118.92822
979.542	43.03055
979.713	-49.69214
979.884	38.81488
980.055	80.97574
980.226	45.13842
980.397	19.84552
980.568	80.97574
980.739	51.46218
980.91	68.32652
981.081	7.20034
981.252	17.73793
981.423	21.95313
981.594	11.4153
981.765	38.81488
981.936	38.81488
982.106	47.24632
982.277	55.67812
982.448	-15.98024
982.619	30.38382
982.79	118.92822
982.96	45.13842
983.131	80.97574
983.302	53.57014
983.472	53.57014
983.643	36.70708
983.814	102.05957
983.984	83.08402
984.155	26.16843
984.326	43.03055
984.496	26.16843
984.667	87.30066
984.837	114.71092
985.008	13.52282
985.178	68.32652
985.349	47.24632
985.519	57.78613
985.69	2.98547
985.86	43.03055
986.031	-15.98024
986.201	43.03055
986.371	5.09289
986.542	28.27611
986.712	40.92271
986.882	68.32652
987.053	93.62577
987.223	-13.87303
987.393	38.81488
987.563	99.95108
987.734	89.40901
987.904	99.95108
988.074	78.86748
988.244	68.32652
988.414	9.30781
988.585	51.46218
988.755	85.19233
988.925	-62.33245
989.095	5.09289
989.265	55.67812
989.435	68.32652
989.605	-28.62294
989.775	59.89417
989.945	-18.08741
990.115	59.89417
990.285	87.30066
990.455	59.89417
990.625	49.35423
990.795	19.84552
990.965	45.13842
991.134	17.73793
991.304	59.89417
991.474	-30.72997
991.644	102.05957
991.814	70.43467
991.984	106.2766
992.153	38.81488
992.323	17.73793
992.493	-3.33665
992.662	17.73793
992.832	85.19233
993.002	45.13842
993.171	9.30781
993.341	-22.3017
993.511	11.4153
993.68	-18.08741
993.85	-49.69214
994.019	70.43467
994.189	87.30066
994.358	45.13842
994.528	72.54284
994.697	45.13842
994.867	70.43467
995.036	59.89417
995.206	38.81488
995.375	-18.08741
995.544	43.03055
995.714	102.05957
995.883	45.13842
996.052	57.78613
996.222	30.38382
996.391	78.86748
996.56	30.38382
996.73	40.92271
996.899	110.49372
997.068	-45.4785
997.237	21.95313
997.406	-28.62294
997.576	13.52282
997.745	34.5993
997.914	34.5993
998.083	-5.44397
998.252	13.52282
998.421	59.89417
998.59	36.70708
998.759	45.13842
998.928	49.35423
999.097	28.27611
999.266	26.16843
999.435	78.86748
999.604	68.32652
999.773	11.4153
999.942	2.98547
1000.111	36.70708
1000.28	-15.98024
1000.448	17.73793
1000.617	-64.43909
1000.786	30.38382
1000.955	76.75925
1001.124	-39.15785
1001.292	21.95313
1001.461	26.16843
1001.63	30.38382
1001.798	-30.72997
1001.967	106.2766
1002.136	17.73793
1002.304	85.19233
1002.473	34.5993
1002.642	17.73793
1002.81	13.52282
1002.979	62.00222
1003.147	40.92271
1003.316	0.87808
1003.484	9.30781
1003.653	-11.7658
1003.821	0.87808
1003.99	43.03055
1004.158	-7.55127
1004.327	47.24632
1004.495	-3.33665
1004.663	59.89417
1004.832	38.81488
1005	-11.7658
1005.168	57.78613
1005.337	17.73793
1005.505	11.4153
1005.673	-9.65855
1005.842	34.5993
1006.01	13.52282
1006.178	89.40901
1006.346	40.92271
1006.514	43.03055
1006.683	112.60231
1006.851	43.03055
1007.019	11.4153
1007.187	9.30781
1007.355	13.52282
1007.523	76.75925
1007.691	34.5993
1007.859	-7.55127
1008.027	-7.55127
1008.195	40.92271
1008.363	-3.33665
1008.531	76.75925
1008.699	11.4153
1008.867	-7.55127
1009.035	-9.65855
1009.203	62.00222
1009.37	5.09289
1009.538	38.81488
1009.706	68.32652
1009.874	68.32652
1010.042	11.4153
1010.209	21.95313
1010.377	-32.83698
1010.545	28.27611
1010.713	59.89417
1010.88	17.73793
1011.048	-7.55127
1011.216	38.81488
1011.383	-7.55127
1011.551	-41.26476
1011.718	70.43467
1011.886	-66.54569
1012.054	51.46218
1012.221	28.27611
1012.389	9.30781
1012.556	-5.44397
1012.724	2.98547
1012.891	30.38382
1013.058	21.95313
1013.226	45.13842
1013.393	-15.98024
1013.561	-32.83698
1013.728	51.46218
1013.895	0.87808
1014.063	30.38382
1014.23	-24.40881
1014.397	43.03055
1014.565	9.30781
1014.732	45.13842
1014.899	68.32652
1015.066	-9.65855
1015.233	5.09289
1015.401	19.84552
1015.568	47.24632
1015.735	129.47183
1015.902	30.38382
1016.069	30.38382
1016.236	-7.55127
1016.403	70.43467
1016.57	64.1103
1016.737	5.09289
1016.904	21.95313
1017.071	34.5993
1017.238	-24.40881
1017.405	53.57014
1017.572	43.03055
1017.739	11.4153
1017.906	-15.98024
1018.073	59.89417
1018.24	34.5993
1018.407	13.52282
1018.573	-58.11912
1018.74	0.87808
1018.907	34.5993
1019.074	2.98547
1019.241	34.5993
1019.407	5.09289
1019.574	85.19233
1019.741	11.4153
1019.907	45.13842
1020.074	30.38382
1020.241	7.20034
1020.407	9.30781
1020.574	51.46218
1020.74	114.71092
1020.907	64.1103
1021.073	55.67812
1021.24	-15.98024
1021.406	0.87808
1021.573	51.46218
1021.739	28.27611
1021.906	21.95313
1022.072	89.40901
1022.239	13.52282
1022.405	-7.55127
1022.571	53.57014
1022.738	89.40901
1022.904	-15.98024
1023.07	28.27611
1023.237	68.32652
1023.403	5.09289
1023.569	62.00222
1023.735	-24.40881
1023.902	-45.4785
1024.068	57.78613
1024.234	-5.44397
1024.4	106.2766
1024.566	36.70708
1024.732	30.38382
1024.898	34.5993
1025.065	-58.11912
1025.231	51.46218
1025.397	34.5993
1025.563	-28.62294
1025.729	-11.7658
1025.895	0.87808
1026.061	55.67812
1026.227	55.67812
1026.392	97.84262
1026.558	80.97574
1026.724	53.57014
1026.89	0.87808
1027.056	30.38382
1027.222	49.35423
1027.388	45.13842
1027.553	-1.2293
1027.719	9.30781
1027.885	-37.05092
1028.051	76.75925
1028.216	51.46218
1028.382	55.67812
1028.548	45.13842
1028.713	51.46218
1028.879	-30.72997
1029.045	123.1456
1029.21	5.09289
1029.376	0.87808
1029.541	7.20034
1029.707	78.86748
1029.873	102.05957
1030.038	57.78613
1030.204	-3.33665
1030.369	-39.15785
1030.534	-7.55127
1030.7	-15.98024
1030.865	9.30781
1031.031	17.73793
1031.196	17.73793
1031.361	0.87808
1031.527	28.27611
1031.692	104.16807
1031.857	-24.40881
1032.023	40.92271
1032.188	-11.7658
1032.353	85.19233
1032.518	34.5993
1032.684	55.67812
1032.849	36.70708
1033.014	-5.44397
1033.179	-47.58533
1033.344	-28.62294
1033.509	-3.33665
1033.674	0.87808
1033.839	11.4153
1034.004	51.46218
1034.17	49.35423
1034.335	47.24632
1034.5	11.4153
1034.664	72.54284
1034.829	0.87808
1034.994	-15.98024
1035.159	43.03055
1035.324	2.98547
1035.489	9.30781
1035.654	30.38382
1035.819	76.75925
1035.984	68.32652
1036.148	59.89417
1036.313	-41.26476
1036.478	28.27611
1036.643	-22.3017
1036.807	19.84552
1036.972	-9.65855
1037.137	47.24632
1037.301	32.49155
1037.466	34.5993
1037.631	68.32652
1037.795	30.38382
1037.96	15.63036
1038.124	64.1103
1038.289	118.92822
1038.454	51.46218
1038.618	38.81488
1038.783	2.98547
1038.947	17.73793
1039.111	34.5993
1039.276	43.03055
1039.44	11.4153
1039.605	-13.87303
1039.769	38.81488
1039.933	59.89417
1040.098	19.84552
1040.262	68.32652
1040.426	2.98547
1040.591	93.62577
1040.755	-79.18478
1040.919	5.09289
1041.083	-58.11912
1041.248	-1.2293
1041.412	-11.7658
1041.576	87.30066
1041.74	140.01598
1041.904	19.84552
1042.068	0.87808
1042.232	78.86748
1042.397	-18.08741
1042.561	-18.08741
1042.725	7.20034
1042.889	13.52282
1043.053	21.95313
1043.217	68.32652
1043.381	53.57014
1043.544	45.13842
1043.708	17.73793
1043.872	80.97574
1044.036	11.4153
1044.2	9.30781
1044.364	-24.40881
1044.528	28.27611
1044.691	59.89417
1044.855	55.67812
1045.019	53.57014
1045.183	13.52282
1045.346	19.84552
1045.51	26.16843
1045.674	72.54284
1045.837	5.09289
1046.001	-15.98024
1046.165	38.81488
1046.328	68.32652
1046.492	110.49372
1046.655	-7.55127
1046.819	9.30781
1046.983	40.92271
1047.146	-13.87303
1047.31	15.63036
1047.473	30.38382
1047.636	45.13842
1047.8	32.49155
1047.963	59.89417
1048.127	43.03055
1048.29	-39.15785
