Data from mixed_try1_USB4F045381__8__00112.txt Node

Date: Thu Apr 03 19:59:08 EDT 2025
User: mmckonesweet
Spectrometer: USB4F04538
Trigger mode: 4
Integration Time (sec): 2.700000E-3
Scans to average: 1
Electric dark correction enabled: true
Nonlinearity correction enabled: true
Boxcar width: 0
XAxis mode: Wavelengths
Number of Pixels in Spectrum: 3648
>>>>>Begin Spectral Data<<<<<
345.52	-5.09275
345.736	-5.09275
345.952	-5.09275
346.168	3.33671
346.384	11.76656
346.6	-17.73622
346.816	45.48974
347.032	45.48974
347.248	-11.4146
347.464	26.51971
347.68	-64.08798
347.896	-7.20006
348.112	-30.3788
348.328	22.3044
348.544	-19.84338
348.76	3.33671
348.975	7.55158
349.191	5.44413
349.407	-24.05762
349.623	-19.84338
349.839	-9.30734
350.055	7.55158
350.27	-0.87807
350.486	-21.95051
350.702	28.62739
350.918	13.87408
351.133	56.02946
351.349	-51.44779
351.565	-5.09275
351.781	47.59764
351.996	-11.4146
352.212	-2.98542
352.428	47.59764
352.644	-28.27177
352.859	-26.16471
353.075	47.59764
353.291	41.27401
353.506	-19.84338
353.722	87.65205
353.938	-21.95051
354.153	11.76656
354.369	47.59764
354.584	79.21886
354.8	75.0024
355.016	5.44413
355.231	28.62739
355.447	-19.84338
355.662	-2.98542
355.878	-43.0205
356.093	-2.98542
356.309	47.59764
356.524	-17.73622
356.74	-21.95051
356.955	20.19678
357.171	28.62739
357.386	-59.87469
357.602	39.16618
357.817	5.44413
358.033	26.51971
358.248	-30.3788
358.464	11.76656
358.679	53.92147
358.895	-30.3788
359.11	37.05838
359.325	-68.30117
359.541	-21.95051
359.756	-30.3788
359.972	-38.8067
360.187	22.3044
360.402	18.08919
360.618	1.22931
360.833	-2.98542
361.048	47.59764
361.264	15.98162
361.479	-28.27177
361.694	-51.44779
361.909	30.7351
362.125	-13.52183
362.34	56.02946
362.555	37.05838
362.77	39.16618
362.986	-5.09275
363.201	-38.8067
363.416	60.24551
363.631	34.9506
363.847	-34.5928
364.062	-45.12736
364.277	-2.98542
364.492	24.41204
364.707	13.87408
364.922	45.48974
365.138	7.55158
365.353	37.05838
365.568	7.55158
365.783	26.51971
365.998	37.05838
366.213	-11.4146
366.428	-55.66129
366.643	3.33671
366.858	-7.20006
367.073	-30.3788
367.288	-0.87807
367.503	-9.30734
367.718	-0.87807
367.933	-30.3788
368.148	24.41204
368.363	37.05838
368.578	30.7351
368.793	7.55158
369.008	15.98162
369.223	-24.05762
369.438	58.13747
369.653	47.59764
369.868	-2.98542
370.083	-15.62904
370.298	-13.52183
370.513	20.19678
370.728	11.76656
370.943	-43.0205
371.157	5.44413
371.372	-47.2342
371.587	18.08919
371.802	81.32712
372.017	-19.84338
372.232	20.19678
372.446	-26.16471
372.661	45.48974
372.876	9.65906
373.091	47.59764
373.306	53.92147
373.52	64.46165
373.735	53.92147
373.95	11.76656
374.165	-21.95051
374.379	-9.30734
374.594	-34.5928
374.809	85.54372
375.023	-38.8067
375.238	-19.84338
375.453	30.7351
375.667	-13.52183
375.882	-9.30734
376.097	64.46165
376.311	-61.98135
376.526	13.87408
376.741	7.55158
376.955	24.41204
377.17	39.16618
377.384	49.70556
377.599	-34.5928
377.813	-28.27177
378.028	43.38186
378.242	-15.62904
378.457	-19.84338
378.672	-26.16471
378.886	5.44413
379.101	-13.52183
379.315	-9.30734
379.53	11.76656
379.744	-34.5928
379.958	22.3044
380.173	72.8942
380.387	51.8135
380.602	-61.98135
380.816	41.27401
381.031	-45.12736
381.245	98.19403
381.459	-30.3788
381.674	62.35357
381.888	37.05838
382.103	-0.87807
382.317	-13.52183
382.531	13.87408
382.746	72.8942
382.96	13.87408
383.174	-21.95051
383.388	64.46165
383.603	53.92147
383.817	15.98162
384.031	-21.95051
384.246	-17.73622
384.46	5.44413
384.674	20.19678
384.888	45.48974
385.103	62.35357
385.317	-9.30734
385.531	53.92147
385.745	11.76656
385.959	24.41204
386.174	-26.16471
386.388	-45.12736
386.602	-9.30734
386.816	87.65205
387.03	-13.52183
387.244	7.55158
387.458	28.62739
387.672	-17.73622
387.887	62.35357
388.101	13.87408
388.315	22.3044
388.529	-11.4146
388.743	45.48974
388.957	37.05838
389.171	-11.4146
389.385	-0.87807
389.599	-13.52183
389.813	-38.8067
390.027	-28.27177
390.241	32.84284
390.455	-40.91361
390.669	15.98162
390.883	-13.52183
391.097	24.41204
391.311	-5.09275
391.525	-0.87807
391.738	-36.69976
391.952	28.62739
392.166	62.35357
392.38	-64.08798
392.594	66.56975
392.808	32.84284
393.022	39.16618
393.236	-55.66129
393.449	7.55158
393.663	58.13747
393.877	-85.15292
394.091	20.19678
394.305	-26.16471
394.518	51.8135
394.732	15.98162
394.946	-40.91361
395.16	-38.8067
395.373	-21.95051
395.587	-26.16471
395.801	-21.95051
396.015	-40.91361
396.228	11.76656
396.442	-36.69976
396.656	-0.87807
396.869	15.98162
397.083	62.35357
397.297	58.13747
397.51	-64.08798
397.724	-57.768
397.938	-21.95051
398.151	-51.44779
398.365	7.55158
398.578	-55.66129
398.792	3.33671
399.005	-55.66129
399.219	5.44413
399.433	68.67788
399.646	3.33671
399.86	3.33671
400.073	5.44413
400.287	-2.98542
400.5	34.9506
400.714	11.76656
400.927	81.32712
401.141	-53.55456
401.354	26.51971
401.567	-28.27177
401.781	62.35357
401.994	-40.91361
402.208	-5.09275
402.421	-5.09275
402.635	-5.09275
402.848	28.62739
403.061	-5.09275
403.275	-28.27177
403.488	13.87408
403.701	3.33671
403.915	5.44413
404.128	-64.08798
404.341	-5.09275
404.555	41.27401
404.768	-11.4146
404.981	-21.95051
405.195	30.7351
405.408	-5.09275
405.621	58.13747
405.834	56.02946
406.048	62.35357
406.261	1.22931
406.474	11.76656
406.687	22.3044
406.9	60.24551
407.114	-43.0205
407.327	49.70556
407.54	47.59764
407.753	13.87408
407.966	-38.8067
408.179	20.19678
408.392	-34.5928
408.605	-17.73622
408.819	-26.16471
409.032	96.08559
409.245	7.55158
409.458	-2.98542
409.671	-30.3788
409.884	89.7604
410.097	-38.8067
410.31	3.33671
410.523	11.76656
410.736	3.33671
410.949	-21.95051
411.162	-47.2342
411.375	60.24551
411.588	3.33671
411.801	20.19678
412.014	-49.34101
412.227	-9.30734
412.44	-59.87469
412.653	47.59764
412.865	81.32712
413.078	7.55158
413.291	32.84284
413.504	-36.69976
413.717	-15.62904
413.93	-34.5928
414.143	-49.34101
414.356	62.35357
414.568	58.13747
414.781	-36.69976
414.994	3.33671
415.207	9.65906
415.42	20.19678
415.632	26.51971
415.845	28.62739
416.058	32.84284
416.271	30.7351
416.483	53.92147
416.696	32.84284
416.909	30.7351
417.121	93.97717
417.334	-87.25927
417.547	-13.52183
417.759	-70.40773
417.972	32.84284
418.185	-17.73622
418.397	-34.5928
418.61	-13.52183
418.823	-43.0205
419.035	56.02946
419.248	-2.98542
419.46	26.51971
419.673	125.60578
419.885	68.67788
420.098	13.87408
420.311	45.48974
420.523	-40.91361
420.736	22.3044
420.948	-30.3788
421.161	39.16618
421.373	22.3044
421.586	-13.52183
421.798	24.41204
422.01	-26.16471
422.223	-30.3788
422.435	83.43541
422.648	-36.69976
422.86	72.8942
423.073	-17.73622
423.285	-49.34101
423.497	-2.98542
423.71	47.59764
423.922	3.33671
424.134	91.86877
424.347	-2.98542
424.559	53.92147
424.771	34.9506
424.984	58.13747
425.196	-15.62904
425.408	9.65906
425.621	30.7351
425.833	24.41204
426.045	-80.94014
426.257	-11.4146
426.47	15.98162
426.682	30.7351
426.894	45.48974
427.106	9.65906
427.318	7.55158
427.531	-70.40773
427.743	-17.73622
427.955	18.08919
428.167	3.33671
428.379	9.65906
428.591	-38.8067
428.804	3.33671
429.016	9.65906
429.228	64.46165
429.44	3.33671
429.652	64.46165
429.864	37.05838
430.076	-30.3788
430.288	3.33671
430.5	62.35357
430.712	18.08919
430.924	5.44413
431.136	-64.08798
431.348	56.02946
431.56	53.92147
431.772	-2.98542
431.984	56.02946
432.196	-26.16471
432.408	-72.51427
432.62	-30.3788
432.832	3.33671
433.044	-2.98542
433.256	104.51949
433.468	72.8942
433.679	-64.08798
433.891	7.55158
434.103	-19.84338
434.315	30.7351
434.527	47.59764
434.739	104.51949
434.95	-9.30734
435.162	32.84284
435.374	64.46165
435.586	-24.05762
435.798	15.98162
436.009	32.84284
436.221	-34.5928
436.433	20.19678
436.645	-28.27177
436.856	15.98162
437.068	-28.27177
437.28	34.9506
437.491	28.62739
437.703	5.44413
437.915	-11.4146
438.126	87.65205
438.338	37.05838
438.55	11.76656
438.761	-47.2342
438.973	-13.52183
439.184	49.70556
439.396	-11.4146
439.608	32.84284
439.819	-47.2342
440.031	-17.73622
440.242	62.35357
440.454	30.7351
440.665	15.98162
440.877	-30.3788
441.088	5.44413
441.3	30.7351
441.511	24.41204
441.723	-32.48582
441.934	24.41204
442.146	-26.16471
442.357	-40.91361
442.569	-24.05762
442.78	75.0024
442.991	47.59764
443.203	53.92147
443.414	13.87408
443.626	-5.09275
443.837	-19.84338
444.048	3.33671
444.26	72.8942
444.471	-40.91361
444.682	-34.5928
444.894	5.44413
445.105	24.41204
445.316	-30.3788
445.528	26.51971
445.739	-11.4146
445.95	-13.52183
446.161	20.19678
446.373	43.38186
446.584	45.48974
446.795	-17.73622
447.006	37.05838
447.217	39.16618
447.429	-13.52183
447.64	3.33671
447.851	37.05838
448.062	-26.16471
448.273	51.8135
448.484	-13.52183
448.695	41.27401
448.907	58.13747
449.118	-2.98542
449.329	-5.09275
449.54	22.3044
449.751	39.16618
449.962	62.35357
450.173	20.19678
450.384	-2.98542
450.595	7.55158
450.806	89.7604
451.017	58.13747
451.228	-53.55456
451.439	-21.95051
451.65	-5.09275
451.861	28.62739
452.072	-2.98542
452.283	-0.87807
452.494	-30.3788
452.705	-32.48582
452.915	13.87408
453.126	53.92147
453.337	-68.30117
453.548	22.3044
453.759	7.55158
453.97	-11.4146
454.181	9.65906
454.391	28.62739
454.602	45.48974
454.813	-28.27177
455.024	37.05838
455.235	30.7351
455.445	-76.72725
455.656	28.62739
455.867	24.41204
456.078	68.67788
456.288	-19.84338
456.499	-9.30734
456.71	91.86877
456.921	53.92147
457.131	13.87408
457.342	24.41204
457.553	22.3044
457.763	-21.95051
457.974	37.05838
458.184	-72.51427
458.395	43.38186
458.606	22.3044
458.816	-47.2342
459.027	-7.20006
459.237	60.24551
459.448	28.62739
459.659	-26.16471
459.869	62.35357
460.08	-13.52183
460.29	22.3044
460.501	24.41204
460.711	45.48974
460.922	-55.66129
461.132	-2.98542
461.343	11.76656
461.553	-45.12736
461.764	-30.3788
461.974	-55.66129
462.184	87.65205
462.395	45.48974
462.605	11.76656
462.816	9.65906
463.026	5.44413
463.236	64.46165
463.447	-61.98135
463.657	24.41204
463.867	-21.95051
464.078	-19.84338
464.288	-40.91361
464.498	-5.09275
464.709	-19.84338
464.919	-13.52183
465.129	-34.5928
465.339	15.98162
465.55	-11.4146
465.76	28.62739
465.97	-17.73622
466.18	28.62739
466.391	37.05838
466.601	28.62739
466.811	13.87408
467.021	-19.84338
467.231	-11.4146
467.441	-11.4146
467.651	66.56975
467.862	47.59764
468.072	47.59764
468.282	-21.95051
468.492	70.78603
468.702	11.76656
468.912	3.33671
469.122	-24.05762
469.332	-30.3788
469.542	37.05838
469.752	30.7351
469.962	47.59764
470.172	-19.84338
470.382	22.3044
470.592	3.33671
470.802	28.62739
471.012	15.98162
471.222	47.59764
471.432	39.16618
471.642	96.08559
471.852	9.65906
472.062	-13.52183
472.272	53.92147
472.482	-5.09275
472.691	-17.73622
472.901	39.16618
473.111	70.78603
473.321	-28.27177
473.531	58.13747
473.741	20.19678
473.95	28.62739
474.16	49.70556
474.37	39.16618
474.58	-51.44779
474.79	-5.09275
474.999	45.48974
475.209	-13.52183
475.419	32.84284
475.628	37.05838
475.838	-61.98135
476.048	45.48974
476.258	77.11062
476.467	37.05838
476.677	49.70556
476.886	53.92147
477.096	-21.95051
477.306	-9.30734
477.515	-47.2342
477.725	22.3044
477.935	-11.4146
478.144	3.33671
478.354	66.56975
478.563	-47.2342
478.773	53.92147
478.982	-2.98542
479.192	66.56975
479.401	-17.73622
479.611	-13.52183
479.82	11.76656
480.03	3.33671
480.239	-59.87469
480.449	-36.69976
480.658	-38.8067
480.868	53.92147
481.077	56.02946
481.287	-34.5928
481.496	41.27401
481.705	49.70556
481.915	-51.44779
482.124	-17.73622
482.333	-26.16471
482.543	58.13747
482.752	-51.44779
482.961	-47.2342
483.171	3.33671
483.38	70.78603
483.589	18.08919
483.799	70.78603
484.008	-28.27177
484.217	-38.8067
484.426	30.7351
484.636	5.44413
484.845	-2.98542
485.054	32.84284
485.263	3.33671
485.472	-38.8067
485.682	64.46165
485.891	70.78603
486.1	-13.52183
486.309	-47.2342
486.518	13.87408
486.727	91.86877
486.936	51.8135
487.146	96.08559
487.355	37.05838
487.564	28.62739
487.773	53.92147
487.982	102.41098
488.191	3.33671
488.4	39.16618
488.609	37.05838
488.818	39.16618
489.027	5.44413
489.236	-9.30734
489.445	5.44413
489.654	70.78603
489.863	20.19678
490.072	-30.3788
490.281	30.7351
490.49	7.55158
490.698	13.87408
490.907	20.19678
491.116	-9.30734
491.325	-21.95051
491.534	20.19678
491.743	-11.4146
491.952	3.33671
492.16	-5.09275
492.369	-51.44779
492.578	3.33671
492.787	-11.4146
492.996	7.55158
493.204	49.70556
493.413	-32.48582
493.622	11.76656
493.831	-11.4146
494.039	62.35357
494.248	-28.27177
494.457	7.55158
494.665	-0.87807
494.874	13.87408
495.083	-21.95051
495.291	11.76656
495.5	-7.20006
495.709	28.62739
495.917	91.86877
496.126	34.9506
496.335	32.84284
496.543	53.92147
496.752	24.41204
496.96	18.08919
497.169	11.76656
497.377	41.27401
497.586	41.27401
497.794	-19.84338
498.003	22.3044
498.211	3.33671
498.42	77.11062
498.628	-28.27177
498.837	47.59764
499.045	7.55158
499.254	45.48974
499.462	-0.87807
499.671	-30.3788
499.879	37.05838
500.087	-13.52183
500.296	-5.09275
500.504	-15.62904
500.713	39.16618
500.921	-11.4146
501.129	106.62802
501.338	-34.5928
501.546	-40.91361
501.754	-34.5928
501.962	47.59764
502.171	3.33671
502.379	93.97717
502.587	75.0024
502.795	20.19678
503.004	-36.69976
503.212	18.08919
503.42	-38.8067
503.628	28.62739
503.837	5.44413
504.045	-13.52183
504.253	-21.95051
504.461	18.08919
504.669	11.76656
504.877	43.38186
505.085	53.92147
505.294	-24.05762
505.502	28.62739
505.71	37.05838
505.918	-30.3788
506.126	20.19678
506.334	32.84284
506.542	-40.91361
506.75	62.35357
506.958	49.70556
507.166	-21.95051
507.374	37.05838
507.582	39.16618
507.79	45.48974
507.998	1.22931
508.206	75.0024
508.414	24.41204
508.622	5.44413
508.83	-30.3788
509.037	79.21886
509.245	-5.09275
509.453	-0.87807
509.661	22.3044
509.869	-9.30734
510.077	-30.3788
510.285	24.41204
510.492	41.27401
510.7	41.27401
510.908	81.32712
511.116	-30.3788
511.324	89.7604
511.531	5.44413
511.739	-13.52183
511.947	28.62739
512.155	56.02946
512.362	47.59764
512.57	39.16618
512.778	41.27401
512.985	11.76656
513.193	115.06236
513.401	39.16618
513.608	56.02946
513.816	79.21886
514.024	-9.30734
514.231	81.32712
514.439	20.19678
514.646	28.62739
514.854	-53.55456
515.061	-83.04654
515.269	18.08919
515.477	53.92147
515.684	-49.34101
515.892	134.0409
516.099	45.48974
516.307	11.76656
516.514	-49.34101
516.722	115.06236
516.929	-43.0205
517.136	7.55158
517.344	58.13747
517.551	-19.84338
517.759	123.49705
517.966	53.92147
518.173	28.62739
518.381	13.87408
518.588	30.7351
518.796	32.84284
519.003	20.19678
519.21	30.7351
519.418	45.48974
519.625	7.55158
519.832	1.22931
520.039	11.76656
520.247	1.22931
520.454	22.3044
520.661	-47.2342
520.868	-43.0205
521.076	28.62739
521.283	77.11062
521.49	39.16618
521.697	89.7604
521.904	-26.16471
522.112	47.59764
522.319	20.19678
522.526	37.05838
522.733	-57.768
522.94	39.16618
523.147	11.76656
523.354	58.13747
523.561	32.84284
523.768	70.78603
523.975	98.19403
524.183	13.87408
524.39	28.62739
524.597	-5.09275
524.804	56.02946
525.011	70.78603
525.218	39.16618
525.425	15.98162
525.632	20.19678
525.838	49.70556
526.045	47.59764
526.252	20.19678
526.459	13.87408
526.666	45.48974
526.873	64.46165
527.08	81.32712
527.287	79.21886
527.494	72.8942
527.701	104.51949
527.907	15.98162
528.114	-45.12736
528.321	28.62739
528.528	49.70556
528.735	11.76656
528.941	-19.84338
529.148	47.59764
529.355	7.55158
529.562	41.27401
529.768	11.76656
529.975	45.48974
530.182	11.76656
530.388	28.62739
530.595	98.19403
530.802	75.0024
531.008	3.33671
531.215	26.51971
531.422	3.33671
531.628	32.84284
531.835	108.73657
532.042	53.92147
532.248	18.08919
532.455	41.27401
532.661	9.65906
532.868	62.35357
533.074	53.92147
533.281	75.0024
533.487	45.48974
533.694	37.05838
533.9	98.19403
534.107	47.59764
534.313	11.76656
534.52	60.24551
534.726	24.41204
534.933	11.76656
535.139	70.78603
535.345	24.41204
535.552	20.19678
535.758	49.70556
535.965	79.21886
536.171	83.43541
536.377	28.62739
536.584	28.62739
536.79	-7.20006
536.996	28.62739
537.203	13.87408
537.409	20.19678
537.615	26.51971
537.821	70.78603
538.028	1.22931
538.234	72.8942
538.44	47.59764
538.646	-21.95051
538.853	56.02946
539.059	56.02946
539.265	77.11062
539.471	87.65205
539.677	7.55158
539.883	45.48974
540.09	39.16618
540.296	81.32712
540.502	41.27401
540.708	20.19678
540.914	119.27966
541.12	37.05838
541.326	15.98162
541.532	81.32712
541.738	39.16618
541.944	58.13747
542.15	34.9506
542.356	96.08559
542.562	106.62802
542.768	-11.4146
542.974	62.35357
543.18	34.9506
543.386	72.8942
543.592	45.48974
543.798	89.7604
544.004	39.16618
544.21	37.05838
544.415	72.8942
544.621	66.56975
544.827	60.24551
545.033	43.38186
545.239	7.55158
545.445	96.08559
545.651	53.92147
545.856	70.78603
546.062	121.38835
546.268	125.60578
546.474	30.7351
546.679	56.02946
546.885	70.78603
547.091	91.86877
547.297	79.21886
547.502	62.35357
547.708	62.35357
547.914	24.41204
548.119	28.62739
548.325	24.41204
548.531	115.06236
548.736	11.76656
548.942	37.05838
549.147	165.67563
549.353	3.33671
549.559	83.43541
549.764	87.65205
549.97	30.7351
550.175	119.27966
550.381	77.11062
550.586	79.21886
550.792	53.92147
550.997	53.92147
551.203	100.3025
551.408	96.08559
551.614	37.05838
551.819	93.97717
552.025	115.06236
552.23	81.32712
552.435	131.93208
552.641	112.95374
552.846	102.41098
553.052	96.08559
553.257	163.5665
553.462	39.16618
553.668	96.08559
553.873	119.27966
554.078	22.3044
554.283	81.32712
554.489	-2.98542
554.694	104.51949
554.899	72.8942
555.105	77.11062
555.31	56.02946
555.515	66.56975
555.72	100.3025
555.925	62.35357
556.131	37.05838
556.336	53.92147
556.541	148.80318
556.746	129.82329
556.951	18.08919
557.156	91.86877
557.361	119.27966
557.567	64.46165
557.772	102.41098
557.977	91.86877
558.182	98.19403
558.387	30.7351
558.592	87.65205
558.797	159.34831
559.002	87.65205
559.207	121.38835
559.412	146.69422
559.617	148.80318
559.822	72.8942
560.027	41.27401
560.232	79.21886
560.437	104.51949
560.642	142.47636
560.847	104.51949
561.051	45.48974
561.256	104.51949
561.461	77.11062
561.666	47.59764
561.871	53.92147
562.076	112.95374
562.281	28.62739
562.485	108.73657
562.69	138.25859
562.895	157.23924
563.1	108.73657
563.305	121.38835
563.509	87.65205
563.714	167.78478
563.919	174.11236
564.123	98.19403
564.328	66.56975
564.533	150.91217
564.737	125.60578
564.942	142.47636
565.147	125.60578
565.351	96.08559
565.556	131.93208
565.761	176.22159
565.965	53.92147
566.17	188.87742
566.374	104.51949
566.579	66.56975
566.784	172.00315
566.988	79.21886
567.193	108.73657
567.397	87.65205
567.602	89.7604
567.806	62.35357
568.011	136.14973
568.215	125.60578
568.42	138.25859
568.624	100.3025
568.828	117.171
569.033	121.38835
569.237	180.44012
569.442	138.25859
569.646	233.17854
569.85	148.80318
570.055	260.60738
570.259	125.60578
570.463	165.67563
570.668	125.60578
570.872	64.46165
571.076	100.3025
571.281	197.31505
571.485	163.5665
571.689	104.51949
571.893	125.60578
572.098	138.25859
572.302	91.86877
572.506	165.67563
572.71	182.54942
572.914	254.27736
573.119	129.82329
573.323	155.13019
573.527	62.35357
573.731	159.34831
573.935	205.753
574.139	123.49705
574.343	169.89395
574.547	174.11236
574.751	70.78603
574.955	197.31505
575.159	108.73657
575.364	165.67563
575.568	222.62986
575.772	180.44012
575.976	81.32712
576.18	131.93208
576.383	172.00315
576.587	212.08167
576.791	157.23924
576.995	188.87742
577.199	188.87742
577.403	197.31505
577.607	138.25859
577.811	214.19127
578.015	224.73956
578.219	288.03942
578.422	188.87742
578.626	148.80318
578.83	205.753
579.034	169.89395
579.238	233.17854
579.442	205.753
579.645	214.19127
579.849	214.19127
580.053	184.65873
580.257	155.13019
580.46	169.89395
580.664	218.41053
580.868	112.95374
581.071	150.91217
581.275	273.26793
581.479	142.47636
581.682	218.41053
581.886	228.95901
582.09	205.753
582.293	224.73956
582.497	159.34831
582.7	197.31505
582.904	134.0409
583.107	218.41053
583.311	165.67563
583.515	186.76807
583.718	222.62986
583.922	129.82329
584.125	167.78478
584.329	281.70867
584.532	266.93757
584.735	271.15779
584.939	207.86254
585.142	233.17854
585.346	199.42451
585.549	222.62986
585.753	235.28834
585.956	311.25359
586.159	264.82749
586.363	226.84928
586.566	193.0962
586.769	275.37808
586.973	146.69422
587.176	144.58528
587.379	281.70867
587.582	247.94751
587.786	252.16739
587.989	302.81182
588.192	298.59104
588.395	205.753
588.599	256.38735
588.802	340.80204
589.005	218.41053
589.208	313.36408
589.411	252.16739
589.615	239.50798
589.818	167.78478
590.021	298.59104
590.224	209.9721
590.427	296.48068
590.63	222.62986
590.833	275.37808
591.036	298.59104
591.239	330.24862
591.442	220.52019
591.645	317.58511
591.848	304.92223
592.051	285.92915
592.254	258.49735
592.457	195.20561
592.66	258.49735
592.863	374.57589
593.066	332.35927
593.269	345.02353
593.472	288.03942
593.675	269.04767
593.878	307.03267
594.081	279.59846
594.284	228.95901
594.486	256.38735
594.689	357.68842
594.892	290.14971
595.095	399.90911
595.298	264.82749
595.5	361.91018
595.703	266.93757
595.906	302.81182
596.109	328.13799
596.311	231.06877
596.514	359.79929
596.717	241.61784
596.92	256.38735
597.122	277.48826
597.325	393.57558
597.528	279.59846
597.73	334.46994
597.933	353.46672
598.136	326.02738
598.338	294.37034
598.541	292.26001
598.743	391.46444
598.946	321.80621
599.148	307.03267
599.351	378.79793
599.554	302.81182
599.756	330.24862
599.959	364.02109
600.161	399.90911
600.363	328.13799
600.566	435.80187
600.768	321.80621
600.971	482.25804
601.173	323.91679
601.376	418.91058
601.578	366.13202
601.78	340.80204
601.983	349.24509
602.185	355.57756
602.388	357.68842
602.59	480.14624
602.792	300.70142
602.995	385.13111
603.197	385.13111
603.399	499.153
603.601	366.13202
603.804	395.68674
604.006	399.90911
604.208	418.91058
604.41	353.46672
604.613	452.69416
604.815	399.90911
605.017	376.6869
605.219	323.91679
605.421	399.90911
605.623	399.90911
605.826	425.2447
606.028	427.3561
606.23	414.68792
606.432	425.2447
606.634	501.26494
606.836	383.02003
607.038	543.50667
607.24	459.02903
607.442	444.24789
607.644	450.58257
607.846	497.04108
608.048	408.35405
608.25	435.80187
608.452	427.3561
608.654	429.46752
608.856	423.13331
609.058	435.80187
609.26	452.69416
609.462	454.80577
609.664	383.02003
609.866	450.58257
610.067	437.91335
610.269	585.75393
610.471	427.3561
610.673	478.03445
610.875	387.2422
611.077	518.16095
611.278	408.35405
611.48	484.36986
611.682	488.59354
611.884	463.25235
612.085	442.13636
612.287	509.71283
612.489	448.471
612.69	543.50667
612.892	579.4165
613.094	541.39445
613.295	461.14068
613.497	425.2447
613.699	469.58744
613.9	535.05787
614.102	492.81728
614.304	526.6093
614.505	528.72142
614.707	560.40493
614.908	463.25235
615.11	418.91058
615.311	535.05787
615.513	530.83356
615.714	459.02903
615.916	459.02903
616.117	478.03445
616.319	619.55552
616.52	516.0489
616.722	513.93686
616.923	509.71283
617.124	532.94571
617.326	585.75393
617.527	666.03791
617.729	509.71283
617.93	649.13455
618.131	539.28225
618.333	560.40493
618.534	647.02168
618.735	596.31658
618.937	568.85439
619.138	589.97895
619.339	530.83356
619.54	494.92917
619.742	560.40493
619.943	581.52897
620.144	551.95569
620.345	615.33015
620.546	560.40493
620.748	600.54173
620.949	503.37689
621.15	678.71592
621.351	511.82484
621.552	499.153
621.753	522.3851
621.954	598.42915
622.155	666.03791
622.356	653.36032
622.558	575.19162
622.759	545.61891
622.96	672.37686
623.161	672.37686
623.362	585.75393
623.563	723.09218
623.764	526.6093
623.965	657.58613
624.166	543.50667
624.366	628.00643
624.567	518.16095
624.768	695.62058
624.969	606.87955
625.17	695.62058
625.371	661.812
625.572	623.78095
625.773	647.02168
625.973	847.79268
626.174	682.94202
626.375	644.90883
626.576	687.16816
626.777	630.11918
626.977	651.24742
627.178	763.24622
627.379	587.86644
627.58	767.47318
627.78	644.90883
627.981	701.96001
628.182	535.05787
628.382	742.11204
628.583	602.65432
628.784	682.94202
628.984	697.73371
629.185	687.16816
629.386	636.45753
629.586	773.81369
629.787	661.812
629.987	742.11204
630.188	636.45753
630.388	678.71592
630.589	843.56501
630.79	731.54534
630.99	640.68315
631.191	737.88533
631.391	606.87955
631.591	832.99598
631.792	778.04075
631.992	797.06299
632.193	718.86566
632.393	794.94937
632.594	706.18636
632.794	788.60856
632.994	670.26386
633.195	767.47318
633.395	763.24622
633.595	805.51757
633.796	714.63918
633.996	856.24813
634.196	704.07318
634.397	809.74492
634.597	767.47318
634.797	788.60856
634.997	666.03791
635.198	759.0193
635.398	788.60856
635.598	805.51757
635.798	754.79243
635.998	809.74492
636.199	813.9723
636.399	923.89651
636.599	695.62058
636.799	824.54092
636.999	780.15429
637.199	830.8822
637.399	704.07318
637.599	892.18531
637.799	771.70018
637.999	780.15429
638.199	892.18531
638.399	951.38093
638.599	670.26386
638.799	991.55261
638.999	856.24813
639.199	871.0455
639.399	839.33737
639.599	917.55413
639.799	756.90586
639.999	839.33737
640.199	792.83576
640.399	915.44002
640.599	818.19972
640.799	953.49517
640.998	847.79268
641.198	961.95219
641.398	940.80986
641.598	936.58148
641.798	883.72929
641.997	961.95219
642.197	860.47591
642.397	957.72367
642.597	892.18531
642.796	970.40932
642.996	790.72215
643.196	1014.81099
643.395	735.77199
643.595	1008.46772
643.795	877.38736
643.994	993.66698
644.194	860.47591
644.394	987.3239
644.593	970.40932
644.793	1002.12451
644.992	978.86656
645.192	978.86656
645.392	1048.64267
645.591	1016.92543
645.791	885.84328
645.99	915.44002
646.19	974.63792
646.389	1010.58214
646.589	1046.52815
646.788	991.55261
646.987	991.55261
647.187	1133.2279
647.386	909.09773
647.586	1080.36118
647.785	961.95219
647.984	1069.78821
648.184	1052.87173
648.383	1000.01012
648.582	961.95219
648.782	1042.29912
648.981	877.38736
649.18	1057.10082
649.38	900.64146
649.579	1135.34263
649.778	991.55261
649.977	1078.24658
650.177	1021.15431
650.376	1253.77354
650.575	985.20956
650.774	1177.63809
650.973	985.20956
651.173	1156.49016
651.372	1002.12451
651.571	1160.71971
651.77	993.66698
651.969	1160.71971
652.168	1012.69656
652.367	1099.39286
652.566	983.09522
652.765	1312.99246
652.964	1160.71971
653.163	1308.76248
653.362	995.78135
653.561	1205.13096
653.76	985.20956
653.959	1186.09737
654.158	1205.13096
654.357	1141.68685
654.556	1133.2279
654.755	1241.08402
654.954	1067.67363
655.153	1253.77354
655.352	1177.63809
655.551	1152.26062
655.749	1179.7529
655.948	1228.3946
656.147	1245.31384
656.346	1232.62439
656.545	1145.91634
656.743	1238.96911
656.942	1012.69656
657.141	1255.88846
657.34	1109.96618
657.538	1266.46315
657.737	1219.93505
657.936	1241.08402
658.135	1179.7529
658.333	1109.96618
658.532	1069.78821
658.731	1334.14247
658.929	1236.8542
659.128	1169.17887
659.326	1033.84112
659.525	1291.84265
659.724	1152.26062
659.922	1296.07259
660.121	1156.49016
660.319	1226.27971
660.518	1046.52815
660.716	1177.63809
660.915	1103.62217
661.113	1439.89428
661.312	1253.77354
661.51	1298.18757
661.709	1357.40765
661.907	1302.41753
662.105	1215.70529
662.304	1357.40765
662.502	1200.90125
662.701	1427.20397
662.899	1192.44187
663.097	1236.8542
663.296	1251.65861
663.494	1475.85016
663.692	1344.71753
663.891	1346.83255
664.089	1228.3946
664.287	1285.49774
664.485	1296.07259
664.684	1477.96521
664.882	1164.94928
665.08	1545.64651
665.278	1334.14247
665.476	1348.94757
665.675	1232.62439
665.873	1380.67299
666.071	1137.45737
666.269	1458.92975
666.467	1300.30255
666.665	1477.96521
666.863	1171.29367
667.061	1477.96521
667.259	1194.55671
667.457	1450.46954
667.655	1272.80799
667.853	1450.46954
668.051	1319.33745
668.249	1435.66417
668.447	1217.82017
668.645	1338.37249
668.843	1177.63809
669.041	1490.65551
669.239	1194.55671
669.437	1384.90307
669.635	1342.60252
669.833	1456.8147
670.031	1247.42876
670.229	1482.19531
670.426	1148.0311
670.624	1465.27491
670.822	1389.13314
671.02	1456.8147
671.218	1477.96521
671.415	1340.4875
671.613	1287.61271
671.811	1503.34579
672.009	1219.93505
672.206	1490.65551
672.404	1338.37249
672.602	1526.61123
672.799	1338.37249
672.997	1418.74377
673.195	1355.29263
673.392	1513.921
673.59	1427.20397
673.788	1427.20397
673.985	1281.26782
674.183	1484.31036
674.38	1262.23327
674.578	1551.99158
674.775	1465.27491
674.973	1367.98279
675.17	1556.22162
675.368	1414.51368
675.565	1395.47827
675.763	1573.14173
675.96	1397.59331
676.158	1422.97387
676.355	1264.34821
676.553	1399.70835
676.75	1372.21285
676.947	1537.18639
677.145	1422.97387
677.342	1518.15108
677.539	1312.99246
677.737	1435.66417
677.934	1361.6377
678.131	1312.99246
678.329	1418.74377
678.526	1558.33664
678.723	1351.06259
678.92	1484.31036
679.118	1473.73511
679.315	1516.03604
679.512	1164.94928
679.709	1532.95633
679.906	1418.74377
680.104	1488.54046
680.301	1346.83255
680.498	1418.74377
680.695	1380.67299
680.892	1556.22162
681.089	1399.70835
681.286	1497.00065
681.483	1287.61271
681.68	1575.25674
681.877	1391.24818
682.075	1604.86667
682.272	1378.55795
682.469	1480.08026
682.665	1376.44292
682.862	1418.74377
683.059	1287.61271
683.256	1511.80596
683.453	1258.0034
683.65	1395.47827
683.847	1245.31384
684.044	1630.24631
684.241	1283.38278
684.438	1439.89428
684.635	1439.89428
684.831	1634.47622
685.028	1329.91245
685.225	1490.65551
685.422	1439.89428
685.619	1416.62872
685.815	1338.37249
686.012	1433.54912
686.209	1357.40765
686.405	1452.58459
686.602	1484.31036
686.799	1619.67149
686.996	1410.28358
687.192	1554.1066
687.389	1401.8234
687.586	1461.0448
687.782	1433.54912
687.979	1611.21161
688.175	1171.29367
688.372	1497.00065
688.568	1410.28358
688.765	1556.22162
688.962	1348.94757
689.158	1583.71675
689.355	1484.31036
689.551	1448.35449
689.748	1332.02746
689.944	1425.08892
690.14	1444.12438
690.337	1418.74377
690.533	1592.17674
690.73	1473.73511
690.926	1367.98279
691.123	1526.61123
691.319	1338.37249
691.515	1439.89428
691.712	1363.75273
691.908	1494.8856
692.104	1431.43407
692.301	1554.1066
692.497	1406.05349
692.693	1524.49619
692.889	1387.0181
693.086	1505.46083
693.282	1454.69964
693.478	1539.30142
693.674	1332.02746
693.87	1433.54912
694.067	1439.89428
694.263	1516.03604
694.459	1308.76248
694.655	1450.46954
694.851	1422.97387
695.047	1602.75169
695.243	1467.38996
695.439	1541.41645
695.635	1355.29263
695.831	1511.80596
696.027	1274.92295
696.224	1389.13314
696.42	1410.28358
696.615	1592.17674
696.811	1448.35449
697.007	1592.17674
697.203	1232.62439
697.399	1501.23074
697.595	1384.90307
697.791	1486.42541
697.987	1287.61271
698.183	1397.59331
698.379	1306.6475
698.575	1545.64651
698.77	1490.65551
698.966	1664.08531
699.162	1291.84265
699.358	1556.22162
699.554	1482.19531
699.749	1575.25674
699.945	1458.92975
700.141	1537.18639
700.337	1458.92975
700.532	1562.56667
700.728	1537.18639
700.924	1511.80596
701.119	1467.38996
701.315	1401.8234
701.511	1348.94757
701.706	1497.00065
701.902	1410.28358
702.097	1645.05095
702.293	1437.77923
702.489	1645.05095
702.684	1492.77056
702.88	1524.49619
703.075	1395.47827
703.271	1626.01639
703.466	1486.42541
703.662	1545.64651
703.857	1488.54046
704.053	1471.62006
704.248	1518.15108
704.443	1630.24631
704.639	1465.27491
704.834	1528.72626
705.03	1376.44292
705.225	1477.96521
705.42	1361.6377
705.616	1581.60175
705.811	1351.06259
706.006	1480.08026
706.202	1342.60252
706.397	1619.67149
706.592	1461.0448
706.787	1592.17674
706.983	1270.69304
707.178	1391.24818
707.373	1351.06259
707.568	1596.40672
707.763	1378.55795
707.959	1600.6367
708.154	1456.8147
708.349	1568.91171
708.544	1376.44292
708.739	1448.35449
708.934	1406.05349
709.129	1676.77477
709.324	1414.51368
709.519	1619.67149
709.714	1439.89428
709.909	1583.71675
710.104	1471.62006
710.299	1594.29173
710.494	1410.28358
710.689	1604.86667
710.884	1410.28358
711.079	1600.6367
711.274	1516.03604
711.469	1672.54496
711.664	1511.80596
711.859	1518.15108
712.054	1444.12438
712.249	1524.49619
712.443	1342.60252
712.638	1708.49796
712.833	1399.70835
713.028	1528.72626
713.223	1414.51368
713.417	1566.7967
713.612	1442.00933
713.807	1594.29173
714.002	1410.28358
714.196	1518.15108
714.391	1418.74377
714.586	1535.07136
714.78	1469.50501
714.975	1401.8234
715.17	1425.08892
715.364	1571.02672
715.559	1387.0181
715.754	1522.38116
715.948	1448.35449
716.143	1477.96521
716.337	1516.03604
716.532	1613.32658
716.726	1389.13314
716.921	1577.37175
717.115	1539.30142
717.31	1613.32658
717.504	1410.28358
717.699	1606.98165
717.893	1355.29263
718.088	1558.33664
718.282	1448.35449
718.476	1456.8147
718.671	1264.34821
718.865	1528.72626
719.059	1437.77923
719.254	1592.17674
719.448	1391.24818
719.642	1516.03604
719.837	1346.83255
720.031	1556.22162
720.225	1312.99246
720.419	1458.92975
720.614	1228.3946
720.808	1439.89428
721.002	1382.78803
721.196	1611.21161
721.39	1312.99246
721.585	1372.21285
721.779	1317.22245
721.973	1528.72626
722.167	1425.08892
722.361	1469.50501
722.555	1342.60252
722.749	1518.15108
722.943	1524.49619
723.137	1418.74377
723.331	1408.16853
723.525	1395.47827
723.719	1376.44292
723.913	1549.87656
724.107	1448.35449
724.301	1403.93844
724.495	1448.35449
724.689	1513.921
724.883	1365.86776
725.077	1545.64651
725.271	1439.89428
725.465	1609.09663
725.659	1274.92295
725.853	1452.58459
726.046	1403.93844
726.24	1465.27491
726.434	1306.6475
726.628	1558.33664
726.822	1482.19531
727.015	1469.50501
727.209	1262.23327
727.403	1484.31036
727.596	1425.08892
727.79	1642.93601
727.984	1429.31902
728.177	1549.87656
728.371	1507.57587
728.565	1615.44155
728.758	1418.74377
728.952	1566.7967
729.146	1461.0448
729.339	1490.65551
729.533	1477.96521
729.726	1501.23074
729.92	1465.27491
730.113	1592.17674
730.307	1372.21285
730.5	1363.75273
730.694	1367.98279
730.887	1513.921
731.081	1374.32789
731.274	1414.51368
731.468	1492.77056
731.661	1499.1157
731.854	1219.93505
732.048	1482.19531
732.241	1279.15286
732.435	1378.55795
732.628	1659.85547
732.821	1446.23943
733.014	1420.85882
733.208	1596.40672
733.401	1488.54046
733.594	1482.19531
733.788	1435.66417
733.981	1425.08892
734.174	1630.24631
734.367	1585.83175
734.56	1452.58459
734.754	1473.73511
734.947	1497.00065
735.14	1456.8147
735.333	1442.00933
735.526	1524.49619
735.719	1431.43407
735.912	1543.53148
736.105	1444.12438
736.298	1526.61123
736.491	1372.21285
736.684	1448.35449
736.877	1255.88846
737.07	1376.44292
737.263	1456.8147
737.456	1596.40672
737.649	1509.69092
737.842	1558.33664
738.035	1594.29173
738.228	1482.19531
738.421	1549.87656
738.614	1568.91171
738.807	1594.29173
739	1486.42541
739.192	1492.77056
739.385	1456.8147
739.578	1418.74377
739.771	1535.07136
739.964	1446.23943
740.156	1659.85547
740.349	1351.06259
740.542	1456.8147
740.735	1465.27491
740.927	1511.80596
741.12	1488.54046
741.313	1412.39863
741.505	1416.62872
741.698	1414.51368
741.891	1374.32789
742.083	1676.77477
742.276	1482.19531
742.468	1494.8856
742.661	1312.99246
742.854	1507.57587
743.046	1306.6475
743.239	1370.09782
743.431	1524.49619
743.624	1439.89428
743.816	1486.42541
744.009	1507.57587
744.201	1418.74377
744.393	1475.85016
744.586	1353.17761
744.778	1465.27491
744.971	1437.77923
745.163	1473.73511
745.355	1486.42541
745.548	1425.08892
745.74	1357.40765
745.932	1609.09663
746.125	1461.0448
746.317	1513.921
746.509	1448.35449
746.702	1461.0448
746.894	1448.35449
747.086	1355.29263
747.278	1594.29173
747.471	1458.92975
747.663	1323.56744
747.855	1444.12438
748.047	1458.92975
748.239	1414.51368
748.431	1406.05349
748.623	1389.13314
748.815	1346.83255
749.008	1497.00065
749.2	1439.89428
749.392	1473.73511
749.584	1401.8234
749.776	1351.06259
749.968	1321.45245
750.16	1446.23943
750.352	1245.31384
750.544	1547.76153
750.736	1357.40765
750.928	1492.77056
751.12	1399.70835
751.311	1365.86776
751.503	1511.80596
751.695	1448.35449
751.887	1439.89428
752.079	1503.34579
752.271	1329.91245
752.463	1397.59331
752.654	1281.26782
752.846	1551.99158
753.038	1395.47827
753.23	1480.08026
753.421	1414.51368
753.613	1503.34579
753.805	1382.78803
753.997	1547.76153
754.188	1535.07136
754.38	1408.16853
754.572	1374.32789
754.763	1376.44292
754.955	1296.07259
755.146	1346.83255
755.338	1458.92975
755.53	1380.67299
755.721	1268.5781
755.913	1336.25748
756.104	1380.67299
756.296	1416.62872
756.487	1281.26782
756.679	1456.8147
756.87	1338.37249
757.062	1556.22162
757.253	1482.19531
757.445	1380.67299
757.636	1302.41753
757.827	1448.35449
758.019	1266.46315
758.21	1482.19531
758.401	1270.69304
758.593	1241.08402
758.784	1247.42876
758.975	1327.79745
759.167	1296.07259
759.358	1461.0448
759.549	1260.11833
759.74	1281.26782
759.932	1205.13096
760.123	1317.22245
760.314	1063.44449
760.505	1219.93505
760.696	1152.26062
760.888	1289.72768
761.079	1274.92295
761.27	1274.92295
761.461	1319.33745
761.652	1376.44292
761.843	1380.67299
762.034	1378.55795
762.225	1186.09737
762.416	1302.41753
762.607	1272.80799
762.798	1321.45245
762.989	1211.47555
763.18	1323.56744
763.371	1120.53962
763.562	1243.19893
763.753	1194.55671
763.944	1410.28358
764.135	1181.86772
764.326	1355.29263
764.517	1302.41753
764.708	1211.47555
764.899	1179.7529
765.089	1367.98279
765.28	1152.26062
765.471	1274.92295
765.662	1207.24582
765.853	1101.50751
766.043	1219.93505
766.234	1198.7864
766.425	1230.50949
766.615	1131.11318
766.806	1219.93505
766.997	1148.0311
767.187	1148.0311
767.378	1128.99846
767.569	1145.91634
767.759	1162.8345
767.95	1139.5721
768.141	1152.26062
768.331	1200.90125
768.522	1133.2279
768.712	1234.73929
768.903	1351.06259
769.093	1059.21537
769.284	1181.86772
769.474	1198.7864
769.665	1188.2122
769.855	1054.98627
770.046	1145.91634
770.236	1042.29912
770.426	1143.80159
770.617	1126.88374
770.807	1164.94928
770.998	1118.42492
771.188	1069.78821
771.378	1097.2782
771.569	1169.17887
771.759	1046.52815
771.949	1213.59042
772.139	1103.62217
772.33	1148.0311
772.52	926.01066
772.71	1209.36068
772.9	957.72367
773.09	1118.42492
773.281	1052.87173
773.471	1154.37539
773.661	1061.32993
773.851	1219.93505
774.041	1082.47579
774.231	1103.62217
774.421	959.83792
774.611	1000.01012
774.802	983.09522
774.992	1031.72664
775.182	1027.49769
775.372	1105.73684
775.562	949.2667
775.752	1105.73684
775.942	1033.84112
776.131	995.78135
776.321	1050.7572
776.511	1118.42492
776.701	985.20956
776.891	1069.78821
777.081	917.55413
777.271	991.55261
777.461	934.4673
777.651	1019.03987
777.84	949.2667
778.03	1105.73684
778.22	957.72367
778.41	936.58148
778.599	936.58148
778.789	1088.81965
778.979	1044.41363
779.169	1008.46772
779.358	873.15945
779.548	942.92406
779.738	972.52362
779.927	1010.58214
780.117	985.20956
780.307	983.09522
780.496	1025.38323
780.686	1040.18461
780.875	955.60942
781.065	949.2667
781.254	953.49517
781.444	928.12481
781.633	890.07129
781.823	993.66698
782.012	945.03827
782.202	934.4673
782.391	909.09773
782.581	858.36202
782.77	921.78238
782.96	923.89651
783.149	782.26784
783.338	940.80986
783.528	841.45119
783.717	995.78135
783.906	864.70372
784.096	1000.01012
784.285	820.31344
784.474	945.03827
784.663	835.10977
784.853	790.72215
785.042	871.0455
785.231	879.50133
785.42	856.24813
785.61	938.69566
785.799	792.83576
785.988	856.24813
786.177	858.36202
786.366	885.84328
786.555	807.63124
786.744	945.03827
786.933	784.38141
787.122	866.81764
787.312	900.64146
787.501	885.84328
787.69	902.75551
787.879	864.70372
788.068	725.20545
788.257	775.92721
788.445	737.88533
788.634	890.07129
788.823	792.83576
789.012	906.98365
789.201	835.10977
789.39	983.09522
789.579	685.05508
789.768	845.67884
789.957	894.29933
790.145	864.70372
790.334	801.29026
790.523	854.13426
790.712	860.47591
790.9	746.3388
791.089	695.62058
791.278	951.38093
791.467	748.45219
791.655	938.69566
791.844	723.09218
792.033	809.74492
792.221	754.79243
792.41	818.19972
792.599	742.11204
792.787	756.90586
792.976	691.39435
793.164	820.31344
793.353	807.63124
793.541	780.15429
793.73	649.13455
793.918	849.90653
794.107	718.86566
794.295	856.24813
794.484	748.45219
794.672	864.70372
794.861	621.66823
795.049	839.33737
795.238	805.51757
795.426	803.40391
795.614	570.96678
795.803	839.33737
795.991	748.45219
796.179	820.31344
796.368	718.86566
796.556	767.47318
796.744	704.07318
796.932	786.49498
797.121	644.90883
797.309	691.39435
797.497	644.90883
797.685	790.72215
797.874	628.00643
798.062	723.09218
798.25	765.35969
798.438	773.81369
798.626	714.63918
798.814	723.09218
799.002	767.47318
799.19	729.43204
799.378	672.37686
799.566	668.15088
799.755	735.77199
799.943	642.79598
800.131	613.21748
800.318	854.13426
800.506	687.16816
800.694	729.43204
800.882	663.92495
801.07	712.52596
801.258	630.11918
801.446	672.37686
801.634	699.84686
801.822	716.75241
802.01	636.45753
802.197	674.48987
802.385	621.66823
802.573	708.29955
802.761	636.45753
802.949	676.60289
803.136	634.34474
803.324	710.41275
803.512	731.54534
803.699	811.8586
803.887	784.38141
804.075	653.36032
804.262	670.26386
804.45	632.23195
804.638	653.36032
804.825	830.8822
805.013	672.37686
805.201	813.9723
805.388	632.23195
805.576	678.71592
805.763	672.37686
805.951	771.70018
806.138	780.15429
806.326	822.42718
806.513	697.73371
806.701	712.52596
806.888	630.11918
807.075	771.70018
807.263	577.30405
807.45	746.3388
807.638	680.82896
807.825	647.02168
808.012	606.87955
808.2	670.26386
808.387	706.18636
808.574	778.04075
808.761	733.65866
808.949	797.06299
809.136	756.90586
809.323	953.49517
809.51	632.23195
809.698	832.99598
809.885	647.02168
810.072	695.62058
810.259	685.05508
810.446	807.63124
810.633	695.62058
810.82	767.47318
811.008	801.29026
811.195	737.88533
811.382	602.65432
811.569	716.75241
811.756	704.07318
811.943	666.03791
812.13	767.47318
812.317	813.9723
812.504	661.812
812.691	773.81369
812.878	754.79243
813.064	847.79268
813.251	687.16816
813.438	832.99598
813.625	771.70018
813.812	752.679
813.999	733.65866
814.186	737.88533
814.372	695.62058
814.559	748.45219
814.746	716.75241
814.933	704.07318
815.12	720.97891
815.306	739.99868
815.493	628.00643
815.68	752.679
815.866	695.62058
816.053	839.33737
816.24	670.26386
816.426	773.81369
816.613	640.68315
816.799	663.92495
816.986	695.62058
817.173	687.16816
817.359	706.18636
817.546	765.35969
817.732	704.07318
817.919	735.77199
818.105	672.37686
818.292	699.84686
818.478	701.96001
818.665	746.3388
818.851	712.52596
819.037	767.47318
819.224	630.11918
819.41	685.05508
819.597	644.90883
819.783	780.15429
819.969	714.63918
820.156	685.05508
820.342	742.11204
820.528	868.93157
820.714	754.79243
820.901	822.42718
821.087	619.55552
821.273	748.45219
821.459	746.3388
821.646	847.79268
821.832	754.79243
822.018	712.52596
822.204	712.52596
822.39	763.24622
822.576	676.60289
822.762	628.00643
822.948	640.68315
823.134	670.26386
823.32	621.66823
823.507	723.09218
823.693	638.57033
823.879	699.84686
824.065	551.95569
824.25	759.0193
824.436	611.10482
824.622	628.00643
824.808	638.57033
824.994	657.58613
825.18	602.65432
825.366	775.92721
825.552	518.16095
825.738	628.00643
825.923	638.57033
826.109	712.52596
826.295	619.55552
826.481	611.10482
826.667	621.66823
826.852	720.97891
827.038	687.16816
827.224	756.90586
827.409	714.63918
827.595	750.56559
827.781	723.09218
827.966	674.48987
828.152	562.51727
828.338	634.34474
828.523	678.71592
828.709	729.43204
828.894	585.75393
829.08	666.03791
829.266	518.16095
829.451	581.52897
829.637	535.05787
829.822	644.90883
830.008	579.4165
830.193	644.90883
830.378	611.10482
830.564	623.78095
830.749	435.80187
830.935	638.57033
831.12	526.6093
831.305	680.82896
831.491	530.83356
831.676	642.79598
831.861	520.27302
832.047	598.42915
832.232	628.00643
832.417	558.2926
832.602	530.83356
832.788	598.42915
832.973	611.10482
833.158	642.79598
833.343	570.96678
833.528	676.60289
833.714	594.20402
833.899	598.42915
834.084	562.51727
834.269	644.90883
834.454	511.82484
834.639	528.72142
834.824	530.83356
835.009	632.23195
835.194	653.36032
835.379	636.45753
835.564	644.90883
835.749	568.85439
835.934	535.05787
836.119	537.17005
836.304	484.36986
836.489	537.17005
836.674	421.02194
836.859	581.52897
837.044	541.39445
837.228	568.85439
837.413	492.81728
837.598	520.27302
837.783	573.07919
837.968	492.81728
838.152	494.92917
838.337	543.50667
838.522	577.30405
838.707	655.47322
838.891	475.92268
839.076	556.18028
839.261	526.6093
839.445	585.75393
839.63	442.13636
839.815	526.6093
839.999	623.78095
840.184	573.07919
840.368	467.47573
840.553	543.50667
840.737	408.35405
840.922	408.35405
841.106	387.2422
841.291	623.78095
841.475	395.68674
841.66	543.50667
841.844	416.79924
842.029	467.47573
842.213	408.35405
842.397	429.46752
842.582	446.35944
842.766	484.36986
842.951	391.46444
843.135	543.50667
843.319	461.14068
843.504	522.3851
843.688	475.92268
843.872	427.3561
844.056	427.3561
844.241	494.92917
844.425	450.58257
844.609	433.6904
844.793	467.47573
844.977	456.91739
845.161	465.36403
845.346	503.37689
845.53	366.13202
845.714	469.58744
845.898	429.46752
846.082	452.69416
846.266	387.2422
846.45	475.92268
846.634	391.46444
846.818	332.35927
847.002	326.02738
847.186	431.57895
847.37	404.13155
847.554	425.2447
847.738	383.02003
847.922	488.59354
848.106	526.6093
848.29	429.46752
848.473	448.471
848.657	418.91058
848.841	408.35405
849.025	359.79929
849.209	349.24509
849.392	378.79793
849.576	412.57661
849.76	383.02003
849.944	408.35405
850.127	475.92268
850.311	347.1343
850.495	418.91058
850.678	410.46532
850.862	435.80187
851.046	383.02003
851.229	368.24296
851.413	383.02003
851.596	357.68842
851.78	376.6869
851.964	376.6869
852.147	298.59104
852.331	345.02353
852.514	290.14971
852.698	336.58062
852.881	300.70142
853.065	383.02003
853.248	391.46444
853.431	374.57589
853.615	336.58062
853.798	402.02032
853.982	340.80204
854.165	357.68842
854.348	300.70142
854.532	387.2422
854.715	298.59104
854.898	243.72771
855.081	359.79929
855.265	290.14971
855.448	332.35927
855.631	326.02738
855.814	269.04767
855.997	389.35331
856.181	307.03267
856.364	264.82749
856.547	334.46994
856.73	368.24296
856.913	283.8189
857.096	311.25359
857.279	366.13202
857.462	323.91679
857.645	241.61784
857.828	385.13111
858.011	277.48826
858.194	269.04767
858.377	294.37034
858.56	332.35927
858.743	349.24509
858.926	370.35392
859.109	323.91679
859.292	315.47458
859.475	277.48826
859.658	357.68842
859.841	277.48826
860.023	300.70142
860.206	222.62986
860.389	281.70867
860.572	264.82749
860.755	300.70142
860.937	197.31505
861.12	247.94751
861.303	283.8189
861.486	239.50798
861.668	235.28834
861.851	201.53399
862.034	264.82749
862.216	311.25359
862.399	277.48826
862.581	233.17854
862.764	264.82749
862.947	294.37034
863.129	285.92915
863.312	226.84928
863.494	273.26793
863.677	328.13799
863.859	252.16739
864.042	334.46994
864.224	323.91679
864.406	275.37808
864.589	142.47636
864.771	184.65873
864.954	247.94751
865.136	254.27736
865.318	262.71742
865.501	262.71742
865.683	258.49735
865.865	323.91679
866.048	167.78478
866.23	256.38735
866.412	209.9721
866.594	239.50798
866.777	180.44012
866.959	288.03942
867.141	241.61784
867.323	197.31505
867.505	214.19127
867.687	252.16739
867.869	235.28834
868.052	252.16739
868.234	216.30089
868.416	199.42451
868.598	212.08167
868.78	231.06877
868.962	193.0962
869.144	214.19127
869.326	96.08559
869.508	190.9868
869.69	150.91217
869.872	184.65873
870.054	159.34831
870.236	266.93757
870.417	222.62986
870.599	222.62986
870.781	226.84928
870.963	239.50798
871.145	237.39815
871.327	176.22159
871.508	197.31505
871.69	294.37034
871.872	216.30089
872.054	315.47458
872.235	252.16739
872.417	228.95901
872.599	218.41053
872.78	195.20561
872.962	184.65873
873.144	231.06877
873.325	184.65873
873.507	254.27736
873.689	148.80318
873.87	266.93757
874.052	180.44012
874.233	163.5665
874.415	188.87742
874.596	176.22159
874.778	180.44012
874.959	231.06877
875.141	188.87742
875.322	146.69422
875.503	174.11236
875.685	298.59104
875.866	121.38835
876.048	150.91217
876.229	148.80318
876.41	235.28834
876.592	190.9868
876.773	252.16739
876.954	174.11236
877.136	163.5665
877.317	231.06877
877.498	195.20561
877.679	163.5665
877.86	212.08167
878.042	247.94751
878.223	174.11236
878.404	193.0962
878.585	241.61784
878.766	222.62986
878.947	182.54942
879.128	161.45739
879.309	205.753
879.49	180.44012
879.672	222.62986
879.853	142.47636
880.034	231.06877
880.215	205.753
880.396	298.59104
880.576	195.20561
880.757	239.50798
880.938	309.14312
881.119	193.0962
881.3	174.11236
881.481	260.60738
881.662	155.13019
881.843	167.78478
882.023	228.95901
882.204	311.25359
882.385	224.73956
882.566	231.06877
882.747	277.48826
882.927	218.41053
883.108	235.28834
883.289	205.753
883.469	256.38735
883.65	190.9868
883.831	220.52019
884.011	218.41053
884.192	197.31505
884.373	288.03942
884.553	197.31505
884.734	165.67563
884.914	186.76807
885.095	205.753
885.275	304.92223
885.456	188.87742
885.636	239.50798
885.817	258.49735
885.997	239.50798
886.178	245.8376
886.358	218.41053
886.538	241.61784
886.719	121.38835
886.899	199.42451
887.08	300.70142
887.26	290.14971
887.44	222.62986
887.621	313.36408
887.801	239.50798
887.981	216.30089
888.161	281.70867
888.342	153.02117
888.522	199.42451
888.702	218.41053
888.882	241.61784
889.062	218.41053
889.242	138.25859
889.423	231.06877
889.603	247.94751
889.783	235.28834
889.963	184.65873
890.143	243.72771
890.323	254.27736
890.503	269.04767
890.683	266.93757
890.863	262.71742
891.043	174.11236
891.223	266.93757
891.403	239.50798
891.583	245.8376
891.763	201.53399
891.943	264.82749
892.122	193.0962
892.302	285.92915
892.482	250.05744
892.662	182.54942
892.842	285.92915
893.022	237.39815
893.201	235.28834
893.381	245.8376
893.561	155.13019
893.741	216.30089
893.92	188.87742
894.1	207.86254
894.28	155.13019
894.459	197.31505
894.639	153.02117
894.819	190.9868
894.998	190.9868
895.178	243.72771
895.357	172.00315
895.537	247.94751
895.716	155.13019
895.896	228.95901
896.075	184.65873
896.255	155.13019
896.434	155.13019
896.614	186.76807
896.793	197.31505
896.973	199.42451
897.152	121.38835
897.331	296.48068
897.511	182.54942
897.69	233.17854
897.87	146.69422
898.049	146.69422
898.228	197.31505
898.407	140.36746
898.587	252.16739
898.766	155.13019
898.945	188.87742
899.124	199.42451
899.304	222.62986
899.483	163.5665
899.662	197.31505
899.841	176.22159
900.02	106.62802
900.199	201.53399
900.378	199.42451
900.557	150.91217
900.737	104.51949
900.916	165.67563
901.095	142.47636
901.274	140.36746
901.453	104.51949
901.632	112.95374
901.811	203.64348
901.989	193.0962
902.168	224.73956
902.347	98.19403
902.526	172.00315
902.705	180.44012
902.884	174.11236
903.063	197.31505
903.242	104.51949
903.42	176.22159
903.599	182.54942
903.778	167.78478
903.957	79.21886
904.135	138.25859
904.314	108.73657
904.493	172.00315
904.672	138.25859
904.85	112.95374
905.029	96.08559
905.207	150.91217
905.386	150.91217
905.565	180.44012
905.743	140.36746
905.922	197.31505
906.1	184.65873
906.279	98.19403
906.457	142.47636
906.636	188.87742
906.814	138.25859
906.993	58.13747
907.171	104.51949
907.35	100.3025
907.528	110.84515
907.707	98.19403
907.885	81.32712
908.063	163.5665
908.242	81.32712
908.42	53.92147
908.598	62.35357
908.777	131.93208
908.955	142.47636
909.133	96.08559
909.311	62.35357
909.49	104.51949
909.668	182.54942
909.846	49.70556
910.024	47.59764
910.202	79.21886
910.38	70.78603
910.559	112.95374
910.737	75.0024
910.915	108.73657
911.093	125.60578
911.271	129.82329
911.449	134.0409
911.627	106.62802
911.805	104.51949
911.983	100.3025
912.161	121.38835
912.339	100.3025
912.517	140.36746
912.695	60.24551
912.872	142.47636
913.05	104.51949
913.228	104.51949
913.406	155.13019
913.584	131.93208
913.762	184.65873
913.939	75.0024
914.117	159.34831
914.295	121.38835
914.473	136.14973
914.65	163.5665
914.828	104.51949
915.006	28.62739
915.184	18.08919
915.361	117.171
915.539	112.95374
915.716	41.27401
915.894	123.49705
916.072	112.95374
916.249	172.00315
916.427	53.92147
916.604	131.93208
916.782	91.86877
916.959	77.11062
917.137	172.00315
917.314	56.02946
917.492	93.97717
917.669	98.19403
917.847	89.7604
918.024	96.08559
918.201	104.51949
918.379	180.44012
918.556	87.65205
918.733	98.19403
918.911	172.00315
919.088	64.46165
919.265	45.48974
919.442	64.46165
919.62	87.65205
919.797	96.08559
919.974	39.16618
920.151	119.27966
920.328	20.19678
920.506	70.78603
920.683	104.51949
920.86	81.32712
921.037	87.65205
921.214	138.25859
921.391	28.62739
921.568	83.43541
921.745	70.78603
921.922	91.86877
922.099	83.43541
922.276	138.25859
922.453	140.36746
922.63	66.56975
922.807	15.98162
922.984	87.65205
923.161	138.25859
923.338	81.32712
923.514	87.65205
923.691	87.65205
923.868	104.51949
924.045	-5.09275
924.222	81.32712
924.399	127.71452
924.575	22.3044
924.752	68.67788
924.929	96.08559
925.105	165.67563
925.282	79.21886
925.459	167.78478
925.635	53.92147
925.812	81.32712
925.989	134.0409
926.165	115.06236
926.342	53.92147
926.518	1.22931
926.695	85.54372
926.871	47.59764
927.048	53.92147
927.224	77.11062
927.401	83.43541
927.577	66.56975
927.754	-7.20006
927.93	72.8942
928.107	112.95374
928.283	68.67788
928.459	81.32712
928.636	110.84515
928.812	150.91217
928.988	66.56975
929.165	-5.09275
929.341	64.46165
929.517	62.35357
929.693	112.95374
929.87	51.8135
930.046	41.27401
930.222	62.35357
930.398	64.46165
930.574	79.21886
930.751	108.73657
930.927	30.7351
931.103	-57.768
931.279	32.84284
931.455	41.27401
931.631	53.92147
931.807	89.7604
931.983	-38.8067
932.159	13.87408
932.335	32.84284
932.511	77.11062
932.687	70.78603
932.863	98.19403
933.039	22.3044
933.215	87.65205
933.391	134.0409
933.566	70.78603
933.742	87.65205
933.918	72.8942
934.094	79.21886
934.27	37.05838
934.445	123.49705
934.621	41.27401
934.797	34.9506
934.973	45.48974
935.148	64.46165
935.324	43.38186
935.5	13.87408
935.675	41.27401
935.851	-26.16471
936.027	53.92147
936.202	79.21886
936.378	56.02946
936.553	39.16618
936.729	9.65906
936.904	56.02946
937.08	87.65205
937.255	56.02946
937.431	28.62739
937.606	45.48974
937.782	43.38186
937.957	93.97717
938.133	70.78603
938.308	20.19678
938.483	13.87408
938.659	30.7351
938.834	28.62739
939.009	39.16618
939.185	18.08919
939.36	53.92147
939.535	28.62739
939.71	91.86877
939.886	56.02946
940.061	-30.3788
940.236	24.41204
940.411	96.08559
940.586	-21.95051
940.761	45.48974
940.937	87.65205
941.112	-13.52183
941.287	83.43541
941.462	62.35357
941.637	30.7351
941.812	-2.98542
941.987	32.84284
942.162	81.32712
942.337	79.21886
942.512	79.21886
942.687	-2.98542
942.862	5.44413
943.037	3.33671
943.212	7.55158
943.386	49.70556
943.561	-36.69976
943.736	91.86877
943.911	87.65205
944.086	-5.09275
944.26	81.32712
944.435	-30.3788
944.61	-11.4146
944.785	58.13747
944.959	5.44413
945.134	53.92147
945.309	-19.84338
945.483	62.35357
945.658	-13.52183
945.833	30.7351
946.007	-19.84338
946.182	-2.98542
946.357	37.05838
946.531	13.87408
946.706	81.32712
946.88	-5.09275
947.055	-36.69976
947.229	-15.62904
947.404	-5.09275
947.578	-15.62904
947.752	30.7351
947.927	41.27401
948.101	56.02946
948.276	3.33671
948.45	51.8135
948.624	85.54372
948.799	66.56975
948.973	18.08919
949.147	56.02946
949.321	20.19678
949.496	45.48974
949.67	64.46165
949.844	-72.51427
950.018	53.92147
950.193	24.41204
950.367	-5.09275
950.541	20.19678
950.715	-0.87807
950.889	106.62802
951.063	39.16618
951.237	53.92147
951.411	22.3044
951.585	-5.09275
951.759	20.19678
951.933	-9.30734
952.107	-13.52183
952.281	39.16618
952.455	-28.27177
952.629	3.33671
952.803	18.08919
952.977	9.65906
953.151	-47.2342
953.325	66.56975
953.499	68.67788
953.672	5.44413
953.846	-5.09275
954.02	-24.05762
954.194	5.44413
954.368	11.76656
954.541	13.87408
954.715	-5.09275
954.889	79.21886
955.062	22.3044
955.236	-7.20006
955.41	-49.34101
955.583	53.92147
955.757	-47.2342
955.93	15.98162
956.104	64.46165
956.278	37.05838
956.451	37.05838
956.625	-45.12736
956.798	53.92147
956.972	5.44413
957.145	96.08559
957.319	20.19678
957.492	45.48974
957.665	3.33671
957.839	28.62739
958.012	7.55158
958.185	11.76656
958.359	-51.44779
958.532	81.32712
958.705	9.65906
958.879	47.59764
959.052	13.87408
959.225	24.41204
959.398	104.51949
959.572	28.62739
959.745	64.46165
959.918	30.7351
960.091	18.08919
960.264	-13.52183
960.438	96.08559
960.611	45.48974
960.784	-30.3788
960.957	22.3044
961.13	-9.30734
961.303	58.13747
961.476	-5.09275
961.649	47.59764
961.822	51.8135
961.995	47.59764
962.168	56.02946
962.341	11.76656
962.514	3.33671
962.686	-0.87807
962.859	-11.4146
963.032	37.05838
963.205	28.62739
963.378	11.76656
963.551	45.48974
963.723	91.86877
963.896	62.35357
964.069	85.54372
964.242	37.05838
964.414	32.84284
964.587	-17.73622
964.76	-13.52183
964.932	26.51971
965.105	26.51971
965.278	11.76656
965.45	-5.09275
965.623	83.43541
965.795	72.8942
965.968	39.16618
966.14	47.59764
966.313	79.21886
966.485	15.98162
966.658	47.59764
966.83	-28.27177
967.003	18.08919
967.175	-21.95051
967.348	58.13747
967.52	100.3025
967.692	49.70556
967.865	-28.27177
968.037	-13.52183
968.209	56.02946
968.382	11.76656
968.554	142.47636
968.726	-59.87469
968.898	7.55158
969.071	-36.69976
969.243	20.19678
969.415	-5.09275
969.587	41.27401
969.759	49.70556
969.932	7.55158
970.104	77.11062
970.276	28.62739
970.448	-47.2342
970.62	45.48974
970.792	41.27401
970.964	-5.09275
971.136	-15.62904
971.308	-13.52183
971.48	-30.3788
971.652	45.48974
971.824	7.55158
971.996	37.05838
972.168	30.7351
972.339	-21.95051
972.511	3.33671
972.683	58.13747
972.855	-0.87807
973.027	20.19678
973.199	47.59764
973.37	49.70556
973.542	75.0024
973.714	-72.51427
973.886	-9.30734
974.057	32.84284
974.229	-30.3788
974.401	45.48974
974.572	53.92147
974.744	-9.30734
974.915	-59.87469
975.087	20.19678
975.259	-7.20006
975.43	-15.62904
975.602	-24.05762
975.773	37.05838
975.945	28.62739
976.116	53.92147
976.288	-2.98542
976.459	62.35357
976.63	20.19678
976.802	41.27401
976.973	32.84284
977.145	22.3044
977.316	83.43541
977.487	-21.95051
977.659	37.05838
977.83	83.43541
978.001	22.3044
978.172	-5.09275
978.344	28.62739
978.515	64.46165
978.686	-55.66129
978.857	24.41204
979.028	-13.52183
979.2	-13.52183
979.371	41.27401
979.542	3.33671
979.713	62.35357
979.884	81.32712
980.055	20.19678
980.226	64.46165
980.397	3.33671
980.568	56.02946
980.739	5.44413
980.91	-5.09275
981.081	89.7604
981.252	45.48974
981.423	24.41204
981.594	56.02946
981.765	58.13747
981.936	45.48974
982.106	-19.84338
982.277	22.3044
982.448	3.33671
982.619	51.8135
982.79	18.08919
982.96	13.87408
983.131	45.48974
983.302	43.38186
983.472	20.19678
983.643	70.78603
983.814	28.62739
983.984	37.05838
984.155	26.51971
984.326	-13.52183
984.496	-19.84338
984.667	13.87408
984.837	20.19678
985.008	-47.2342
985.178	-21.95051
985.349	75.0024
985.519	-0.87807
985.69	53.92147
985.86	3.33671
986.031	72.8942
986.201	3.33671
986.371	-13.52183
986.542	20.19678
986.712	5.44413
986.882	37.05838
987.053	-0.87807
987.223	62.35357
987.393	20.19678
987.563	-30.3788
987.734	-5.09275
987.904	66.56975
988.074	3.33671
988.244	15.98162
988.414	7.55158
988.585	3.33671
988.755	45.48974
988.925	79.21886
989.095	37.05838
989.265	41.27401
989.435	-34.5928
989.605	32.84284
989.775	3.33671
989.945	66.56975
990.115	1.22931
990.285	-30.3788
990.455	30.7351
990.625	28.62739
990.795	32.84284
990.965	13.87408
991.134	3.33671
991.304	-5.09275
991.474	37.05838
991.644	-13.52183
991.814	37.05838
991.984	66.56975
992.153	18.08919
992.323	-68.30117
992.493	-19.84338
992.662	39.16618
992.832	37.05838
993.002	5.44413
993.171	49.70556
993.341	13.87408
993.511	47.59764
993.68	-17.73622
993.85	-0.87807
994.019	-26.16471
994.189	-34.5928
994.358	22.3044
994.528	-55.66129
994.697	3.33671
994.867	30.7351
995.036	53.92147
995.206	37.05838
995.375	-19.84338
995.544	47.59764
995.714	53.92147
995.883	-0.87807
996.052	47.59764
996.222	11.76656
996.391	-9.30734
996.56	30.7351
996.73	13.87408
996.899	-49.34101
997.068	45.48974
997.237	-11.4146
997.406	-9.30734
997.576	41.27401
997.745	-43.0205
997.914	30.7351
998.083	34.9506
998.252	-21.95051
998.421	70.78603
998.59	-13.52183
998.759	24.41204
998.928	45.48974
999.097	-38.8067
999.266	32.84284
999.435	-21.95051
999.604	-28.27177
999.773	-7.20006
999.942	11.76656
1000.111	56.02946
1000.28	37.05838
1000.448	64.46165
1000.617	-13.52183
1000.786	32.84284
1000.955	41.27401
1001.124	-76.72725
1001.292	47.59764
1001.461	53.92147
1001.63	-47.2342
1001.798	-26.16471
1001.967	13.87408
1002.136	58.13747
1002.304	91.86877
1002.473	1.22931
1002.642	-5.09275
1002.81	45.48974
1002.979	-34.5928
1003.147	62.35357
1003.316	11.76656
1003.484	-24.05762
1003.653	-21.95051
1003.821	11.76656
1003.99	-40.91361
1004.158	13.87408
1004.327	13.87408
1004.495	28.62739
1004.663	62.35357
1004.832	49.70556
1005	20.19678
1005.168	-9.30734
1005.337	70.78603
1005.505	-5.09275
1005.673	70.78603
1005.842	22.3044
1006.01	53.92147
1006.178	-38.8067
1006.346	3.33671
1006.514	39.16618
1006.683	58.13747
1006.851	39.16618
1007.019	39.16618
1007.187	-78.83371
1007.355	58.13747
1007.523	20.19678
1007.691	58.13747
1007.859	45.48974
1008.027	58.13747
1008.195	-64.08798
1008.363	30.7351
1008.531	18.08919
1008.699	11.76656
1008.867	-13.52183
1009.035	20.19678
1009.203	-17.73622
1009.37	-2.98542
1009.538	-21.95051
1009.706	79.21886
1009.874	-38.8067
1010.042	41.27401
1010.209	-9.30734
1010.377	49.70556
1010.545	81.32712
1010.713	-0.87807
1010.88	32.84284
1011.048	-21.95051
1011.216	-0.87807
1011.383	-2.98542
1011.551	20.19678
1011.718	26.51971
1011.886	3.33671
1012.054	7.55158
1012.221	53.92147
1012.389	24.41204
1012.556	3.33671
1012.724	30.7351
1012.891	-91.4719
1013.058	89.7604
1013.226	-9.30734
1013.393	-0.87807
1013.561	5.44413
1013.728	32.84284
1013.895	11.76656
1014.063	32.84284
1014.23	20.19678
1014.397	-15.62904
1014.565	-15.62904
1014.732	-36.69976
1014.899	49.70556
1015.066	22.3044
1015.233	9.65906
1015.401	-11.4146
1015.568	58.13747
1015.735	45.48974
1015.902	56.02946
1016.069	37.05838
1016.236	20.19678
1016.403	49.70556
1016.57	-38.8067
1016.737	-0.87807
1016.904	7.55158
1017.071	20.19678
1017.238	20.19678
1017.405	39.16618
1017.572	3.33671
1017.739	11.76656
1017.906	37.05838
1018.073	11.76656
1018.24	20.19678
1018.407	7.55158
1018.573	47.59764
1018.74	37.05838
1018.907	-89.3656
1019.074	37.05838
1019.241	47.59764
1019.407	-5.09275
1019.574	-26.16471
1019.741	-17.73622
1019.907	112.95374
1020.074	-21.95051
1020.241	45.48974
1020.407	79.21886
1020.574	-47.2342
1020.74	-19.84338
1020.907	-13.52183
1021.073	-17.73622
1021.24	28.62739
1021.406	45.48974
1021.573	45.48974
1021.739	-0.87807
1021.906	3.33671
1022.072	-34.5928
1022.239	-21.95051
1022.405	-0.87807
1022.571	-7.20006
1022.738	24.41204
1022.904	39.16618
1023.07	56.02946
1023.237	-28.27177
1023.403	-55.66129
1023.569	-5.09275
1023.735	13.87408
1023.902	-59.87469
1024.068	75.0024
1024.234	11.76656
1024.4	-43.0205
1024.566	-9.30734
1024.732	-28.27177
1024.898	11.76656
1025.065	1.22931
1025.231	-5.09275
1025.397	-61.98135
1025.563	5.44413
1025.729	47.59764
1025.895	-21.95051
1026.061	13.87408
1026.227	26.51971
1026.392	-5.09275
1026.558	-2.98542
1026.724	60.24551
1026.89	47.59764
1027.056	53.92147
1027.222	11.76656
1027.388	28.62739
1027.553	13.87408
1027.719	-0.87807
1027.885	-9.30734
1028.051	3.33671
1028.216	-13.52183
1028.382	15.98162
1028.548	26.51971
1028.713	64.46165
1028.879	34.9506
1029.045	-72.51427
1029.21	3.33671
1029.376	-26.16471
1029.541	-2.98542
1029.707	-21.95051
1029.873	-5.09275
1030.038	56.02946
1030.204	-7.20006
1030.369	30.7351
1030.534	72.8942
1030.7	-30.3788
1030.865	37.05838
1031.031	-28.27177
1031.196	-45.12736
1031.361	39.16618
1031.527	53.92147
1031.692	26.51971
1031.857	5.44413
1032.023	24.41204
1032.188	37.05838
1032.353	11.76656
1032.518	34.9506
1032.684	20.19678
1032.849	-30.3788
1033.014	37.05838
1033.179	-26.16471
1033.344	24.41204
1033.509	-9.30734
1033.674	28.62739
1033.839	11.76656
1034.004	-34.5928
1034.17	15.98162
1034.335	85.54372
1034.5	28.62739
1034.664	20.19678
1034.829	-17.73622
1034.994	-13.52183
1035.159	37.05838
1035.324	20.19678
1035.489	70.78603
1035.654	20.19678
1035.819	30.7351
1035.984	-28.27177
1036.148	15.98162
1036.313	9.65906
1036.478	66.56975
1036.643	3.33671
1036.807	30.7351
1036.972	-9.30734
1037.137	37.05838
1037.301	9.65906
1037.466	56.02946
1037.631	-68.30117
1037.795	-64.08798
1037.96	96.08559
1038.124	5.44413
1038.289	-9.30734
1038.454	45.48974
1038.618	3.33671
1038.783	58.13747
1038.947	45.48974
1039.111	87.65205
1039.276	91.86877
1039.44	24.41204
1039.605	37.05838
1039.769	7.55158
1039.933	7.55158
1040.098	-26.16471
1040.262	-36.69976
1040.426	-30.3788
1040.591	83.43541
1040.755	60.24551
1040.919	-13.52183
1041.083	28.62739
1041.248	-2.98542
1041.412	7.55158
1041.576	-19.84338
1041.74	-28.27177
1041.904	-47.2342
1042.068	13.87408
1042.232	-43.0205
1042.397	-110.42743
1042.561	75.0024
1042.725	-15.62904
1042.889	28.62739
1043.053	22.3044
1043.217	-55.66129
1043.381	-5.09275
1043.544	-59.87469
1043.708	-36.69976
1043.872	20.19678
1044.036	70.78603
1044.2	-57.768
1044.364	47.59764
1044.528	34.9506
1044.691	22.3044
1044.855	47.59764
1045.019	43.38186
1045.183	20.19678
1045.346	13.87408
1045.51	-83.04654
1045.674	53.92147
1045.837	87.65205
1046.001	37.05838
1046.165	-13.52183
1046.328	-21.95051
1046.492	39.16618
1046.655	49.70556
1046.819	64.46165
1046.983	-9.30734
1047.146	37.05838
1047.31	-26.16471
1047.473	-17.73622
1047.636	30.7351
1047.8	-30.3788
1047.963	47.59764
1048.127	70.78603
1048.29	3.33671
