Data from mixed_try1_USB4F045381__8__00233.txt Node

Date: Thu Apr 03 20:23:33 EDT 2025
User: mmckonesweet
Spectrometer: USB4F04538
Trigger mode: 4
Integration Time (sec): 2.700000E-3
Scans to average: 1
Electric dark correction enabled: true
Nonlinearity correction enabled: true
Boxcar width: 0
XAxis mode: Wavelengths
Number of Pixels in Spectrum: 3648
>>>>>Begin Spectral Data<<<<<
345.52	-0.52684
345.736	-0.52684
345.952	-0.52684
346.168	37.40968
346.384	-13.17063
346.6	56.38079
346.816	-2.6342
347.032	-19.49219
347.248	1.58054
347.464	-0.52684
347.68	-32.13465
347.896	28.97868
348.112	-59.52357
348.328	-27.92059
348.544	37.40968
348.76	56.38079
348.975	-38.45555
349.191	-27.92059
349.407	-4.74153
349.623	81.6785
349.839	28.97868
350.055	47.94895
350.27	-19.49219
350.486	-11.06339
350.702	-44.77622
350.918	-11.06339
351.133	33.19413
351.349	14.22533
351.565	47.94895
351.781	-2.6342
351.996	22.65567
352.212	104.87091
352.428	-13.17063
352.644	56.38079
352.859	22.65567
353.075	62.70491
353.291	-30.02763
353.506	-40.56246
353.722	-13.17063
353.938	28.97868
354.153	41.62532
354.369	-53.20343
354.584	22.65567
354.8	-36.3486
355.016	-19.49219
355.231	-46.88306
355.447	20.54805
355.662	12.11781
355.878	113.30518
356.093	-61.63024
356.309	47.94895
356.524	-21.59933
356.74	14.22533
356.955	-40.56246
357.171	12.11781
357.386	-23.70644
357.602	-15.27784
357.817	14.22533
358.033	-8.95613
358.248	16.33288
358.464	18.44046
358.679	37.40968
358.895	18.44046
359.11	33.19413
359.325	12.11781
359.541	-17.38502
359.756	28.97868
359.972	-4.74153
360.187	-2.6342
360.402	-13.17063
360.618	62.70491
360.833	5.79537
361.048	22.65567
361.264	3.68794
361.479	14.22533
361.694	18.44046
361.909	28.97868
362.125	12.11781
362.34	100.65391
362.555	7.90283
362.77	31.08639
362.986	73.24557
363.201	-0.52684
363.416	24.76332
363.631	-13.17063
363.847	-8.95613
364.062	20.54805
364.277	50.05688
364.492	35.30189
364.707	-57.41689
364.922	41.62532
365.138	3.68794
365.353	-13.17063
365.568	-11.06339
365.783	3.68794
365.998	14.22533
366.213	-38.45555
366.428	111.19658
366.643	41.62532
366.858	-13.17063
367.073	-11.06339
367.288	-21.59933
367.503	-25.81353
367.718	-2.6342
367.933	37.40968
368.148	7.90283
368.363	-11.06339
368.578	-40.56246
368.793	54.2728
369.008	22.65567
369.223	16.33288
369.438	-17.38502
369.653	-13.17063
369.868	71.13739
370.083	56.38079
370.298	-11.06339
370.513	33.19413
370.728	18.44046
370.943	54.2728
371.157	-19.49219
371.372	35.30189
371.587	-4.74153
371.802	-38.45555
372.017	-21.59933
372.232	54.2728
372.446	45.84105
372.661	12.11781
372.876	12.11781
373.091	-36.3486
373.306	31.08639
373.52	41.62532
373.735	39.51749
373.95	-15.27784
374.165	-25.81353
374.379	37.40968
374.594	28.97868
374.809	12.11781
375.023	-30.02763
375.238	10.01031
375.453	-21.59933
375.667	20.54805
375.882	-2.6342
376.097	54.2728
376.311	-11.06339
376.526	75.35377
376.741	-70.05664
376.955	18.44046
377.17	75.35377
377.384	50.05688
377.599	20.54805
377.813	-21.59933
378.028	37.40968
378.242	45.84105
378.457	-6.84884
378.672	20.54805
378.886	-34.24164
379.101	16.33288
379.315	50.05688
379.53	7.90283
379.744	41.62532
379.958	12.11781
380.173	20.54805
380.387	20.54805
380.602	37.40968
380.816	58.48881
381.031	-27.92059
381.245	20.54805
381.459	-13.17063
381.674	56.38079
381.888	-4.74153
382.103	28.97868
382.317	73.24557
382.531	-78.48264
382.746	3.68794
382.96	28.97868
383.174	1.58054
383.388	22.65567
383.603	-8.95613
383.817	102.7624
384.031	-55.31017
384.246	45.84105
384.46	-42.66935
384.674	45.84105
384.888	43.73317
385.103	37.40968
385.317	7.90283
385.531	33.19413
385.745	20.54805
385.959	-30.02763
386.174	54.2728
386.388	45.84105
386.602	-38.45555
386.816	102.7624
387.03	45.84105
387.244	52.16483
387.458	-36.3486
387.672	16.33288
387.887	20.54805
388.101	71.13739
388.315	50.05688
388.529	5.79537
388.743	37.40968
388.957	33.19413
389.171	-11.06339
389.385	88.00344
389.599	-8.95613
389.813	-4.74153
390.027	77.46199
390.241	75.35377
390.455	28.97868
390.669	16.33288
390.883	-36.3486
391.097	26.87099
391.311	100.65391
391.525	28.97868
391.738	28.97868
391.952	-89.01455
392.166	16.33288
392.38	41.62532
392.594	-55.31017
392.808	18.44046
393.022	31.08639
393.236	54.2728
393.449	20.54805
393.663	45.84105
393.877	64.813
394.091	26.87099
394.305	-13.17063
394.518	26.87099
394.732	-23.70644
394.946	-42.66935
395.16	-38.45555
395.373	45.84105
395.587	28.97868
395.801	71.13739
396.015	96.437
396.228	12.11781
396.442	-0.52684
396.656	5.79537
396.869	16.33288
397.083	-36.3486
397.297	28.97868
397.51	-0.52684
397.724	12.11781
397.938	-13.17063
398.151	-107.97035
398.365	56.38079
398.578	-42.66935
398.792	14.22533
399.005	14.22533
399.219	39.51749
399.433	3.68794
399.646	-55.31017
399.86	39.51749
400.073	7.90283
400.287	7.90283
400.5	-13.17063
400.714	-30.02763
400.927	-82.69548
401.141	71.13739
401.354	14.22533
401.567	-8.95613
401.781	-17.38502
401.994	33.19413
402.208	5.79537
402.421	7.90283
402.635	12.11781
402.848	-86.90822
403.061	50.05688
403.275	12.11781
403.488	5.79537
403.701	-67.95008
403.915	-38.45555
404.128	22.65567
404.341	-34.24164
404.555	56.38079
404.768	10.01031
404.981	-34.24164
405.195	20.54805
405.408	66.92111
405.621	35.30189
405.834	-55.31017
406.048	-27.92059
406.261	-40.56246
406.474	66.92111
406.687	62.70491
406.9	73.24557
407.114	-2.6342
407.327	20.54805
407.54	-13.17063
407.753	-4.74153
407.966	-13.17063
408.179	45.84105
408.392	-4.74153
408.605	96.437
408.819	3.68794
409.032	37.40968
409.245	26.87099
409.458	37.40968
409.671	-2.6342
409.884	-4.74153
410.097	37.40968
410.31	-21.59933
410.523	-34.24164
410.736	-11.06339
410.949	-34.24164
411.162	-27.92059
411.375	3.68794
411.588	39.51749
411.801	28.97868
412.014	45.84105
412.227	60.59685
412.44	-0.52684
412.653	41.62532
412.865	75.35377
413.078	62.70491
413.291	24.76332
413.504	45.84105
413.717	50.05688
413.93	-4.74153
414.143	37.40968
414.356	12.11781
414.568	12.11781
414.781	79.57023
414.994	41.62532
415.207	45.84105
415.42	-19.49219
415.632	18.44046
415.845	39.51749
416.058	12.11781
416.271	-11.06339
416.483	39.51749
416.696	-30.02763
416.909	31.08639
417.121	-4.74153
417.334	3.68794
417.547	-36.3486
417.759	-30.02763
417.972	39.51749
418.185	-34.24164
418.397	28.97868
418.61	-44.77622
418.823	37.40968
419.035	41.62532
419.248	31.08639
419.46	-6.84884
419.673	-13.17063
419.885	33.19413
420.098	20.54805
420.311	39.51749
420.523	33.19413
420.736	60.59685
420.948	3.68794
421.161	12.11781
421.373	45.84105
421.586	20.54805
421.798	-2.6342
422.01	41.62532
422.223	37.40968
422.435	-23.70644
422.648	-4.74153
422.86	-2.6342
423.073	-44.77622
423.285	-46.88306
423.497	-59.52357
423.71	-19.49219
423.922	31.08639
424.134	37.40968
424.347	3.68794
424.559	39.51749
424.771	-36.3486
424.984	-0.52684
425.196	-30.02763
425.408	-34.24164
425.621	62.70491
425.833	12.11781
426.045	-21.59933
426.257	-2.6342
426.47	16.33288
426.682	88.00344
426.894	18.44046
427.106	1.58054
427.318	-0.52684
427.531	-38.45555
427.743	24.76332
427.955	45.84105
428.167	62.70491
428.379	-61.63024
428.591	22.65567
428.804	64.813
429.016	-55.31017
429.228	14.22533
429.44	20.54805
429.652	-4.74153
429.864	45.84105
430.076	26.87099
430.288	5.79537
430.5	12.11781
430.712	43.73317
430.924	54.2728
431.136	-23.70644
431.348	-4.74153
431.56	50.05688
431.772	75.35377
431.984	35.30189
432.196	60.59685
432.408	20.54805
432.62	-17.38502
432.832	-8.95613
433.044	33.19413
433.256	-27.92059
433.468	5.79537
433.679	-11.06339
433.891	7.90283
434.103	5.79537
434.315	5.79537
434.527	37.40968
434.739	85.8951
434.95	-25.81353
435.162	83.78679
435.374	37.40968
435.586	56.38079
435.798	41.62532
436.009	28.97868
436.221	14.22533
436.433	33.19413
436.645	10.01031
436.856	-55.31017
437.068	14.22533
437.28	-55.31017
437.491	28.97868
437.703	-2.6342
437.915	20.54805
438.126	62.70491
438.338	-80.58907
438.55	31.08639
438.761	41.62532
438.973	-4.74153
439.184	33.19413
439.396	54.2728
439.608	-13.17063
439.819	37.40968
440.031	-2.6342
440.242	50.05688
440.454	-30.02763
440.665	20.54805
440.877	-0.52684
441.088	28.97868
441.3	-13.17063
441.511	14.22533
441.723	66.92111
441.934	47.94895
442.146	31.08639
442.357	20.54805
442.569	-13.17063
442.78	-21.59933
442.991	81.6785
443.203	18.44046
443.414	-36.3486
443.626	28.97868
443.837	-15.27784
444.048	71.13739
444.26	69.02924
444.471	-38.45555
444.682	71.13739
444.894	45.84105
445.105	58.48881
445.316	16.33288
445.528	-11.06339
445.739	39.51749
445.95	16.33288
446.161	16.33288
446.373	28.97868
446.584	14.22533
446.795	31.08639
447.006	10.01031
447.217	41.62532
447.429	14.22533
447.64	3.68794
447.851	-30.02763
448.062	-17.38502
448.273	14.22533
448.484	-21.59933
448.695	28.97868
448.907	-23.70644
449.118	-27.92059
449.329	39.51749
449.54	12.11781
449.751	71.13739
449.962	16.33288
450.173	102.7624
450.384	-42.66935
450.595	39.51749
450.806	-4.74153
451.017	22.65567
451.228	-4.74153
451.439	33.19413
451.65	64.813
451.861	-36.3486
452.072	-32.13465
452.283	83.78679
452.494	37.40968
452.705	7.90283
452.915	-8.95613
453.126	20.54805
453.337	-36.3486
453.548	22.65567
453.759	-59.52357
453.97	73.24557
454.181	-2.6342
454.391	-8.95613
454.602	12.11781
454.813	62.70491
455.024	5.79537
455.235	12.11781
455.445	66.92111
455.656	-4.74153
455.867	20.54805
456.078	-51.09666
456.288	71.13739
456.499	-51.09666
456.71	7.90283
456.921	-19.49219
457.131	-36.3486
457.342	-42.66935
457.553	-4.74153
457.763	28.97868
457.974	-30.02763
458.184	-4.74153
458.395	64.813
458.606	-46.88306
458.816	43.73317
459.027	7.90283
459.237	-25.81353
459.448	-42.66935
459.659	50.05688
459.869	-15.27784
460.08	47.94895
460.29	-4.74153
460.501	37.40968
460.711	-34.24164
460.922	28.97868
461.132	-17.38502
461.343	28.97868
461.553	-27.92059
461.764	-15.27784
461.974	37.40968
462.184	-46.88306
462.395	-32.13465
462.605	16.33288
462.816	3.68794
463.026	45.84105
463.236	-19.49219
463.447	7.90283
463.657	20.54805
463.867	41.62532
464.078	22.65567
464.288	-89.01455
464.498	-44.77622
464.709	12.11781
464.919	28.97868
465.129	24.76332
465.339	62.70491
465.55	3.68794
465.76	14.22533
465.97	5.79537
466.18	75.35377
466.391	28.97868
466.601	16.33288
466.811	28.97868
467.021	-8.95613
467.231	62.70491
467.441	-4.74153
467.651	-38.45555
467.862	37.40968
468.072	-17.38502
468.282	37.40968
468.492	45.84105
468.702	7.90283
468.912	20.54805
469.122	14.22533
469.332	-72.16318
469.542	45.84105
469.752	20.54805
469.962	-4.74153
470.172	3.68794
470.382	7.90283
470.592	-63.73688
470.802	66.92111
471.012	26.87099
471.222	-4.74153
471.432	14.22533
471.642	-11.06339
471.852	-11.06339
472.062	7.90283
472.272	16.33288
472.482	45.84105
472.691	-13.17063
472.901	24.76332
473.111	52.16483
473.321	16.33288
473.531	41.62532
473.741	-21.59933
473.95	33.19413
474.16	16.33288
474.37	7.90283
474.58	22.65567
474.79	47.94895
474.999	12.11781
475.209	-4.74153
475.419	50.05688
475.628	54.2728
475.838	28.97868
476.048	41.62532
476.258	64.813
476.467	7.90283
476.677	-32.13465
476.886	3.68794
477.096	31.08639
477.306	28.97868
477.515	113.30518
477.725	28.97868
477.935	20.54805
478.144	10.01031
478.354	28.97868
478.563	50.05688
478.773	-38.45555
478.982	-38.45555
479.192	10.01031
479.401	-2.6342
479.611	-46.88306
479.82	-4.74153
480.03	71.13739
480.239	94.32857
480.449	7.90283
480.658	7.90283
480.868	-25.81353
481.077	3.68794
481.287	-86.90822
481.496	45.84105
481.705	109.088
481.915	56.38079
482.124	62.70491
482.333	-15.27784
482.543	7.90283
482.752	37.40968
482.961	-101.65198
483.171	58.48881
483.38	12.11781
483.589	-13.17063
483.799	104.87091
484.008	3.68794
484.217	-36.3486
484.426	-19.49219
484.636	20.54805
484.845	7.90283
485.054	5.79537
485.263	10.01031
485.472	64.813
485.682	54.2728
485.891	66.92111
486.1	16.33288
486.309	71.13739
486.518	31.08639
486.727	-30.02763
486.936	33.19413
487.146	62.70491
487.355	14.22533
487.564	54.2728
487.773	31.08639
487.982	24.76332
488.191	56.38079
488.4	28.97868
488.609	37.40968
488.818	12.11781
489.027	50.05688
489.236	-17.38502
489.445	14.22533
489.654	24.76332
489.863	-36.3486
490.072	-13.17063
490.281	20.54805
490.49	-8.95613
490.698	35.30189
490.907	71.13739
491.116	-4.74153
491.325	3.68794
491.534	-67.95008
491.743	37.40968
491.952	-2.6342
492.16	3.68794
492.369	43.73317
492.578	52.16483
492.787	66.92111
492.996	33.19413
493.204	16.33288
493.413	12.11781
493.622	22.65567
493.831	73.24557
494.039	-13.17063
494.248	37.40968
494.457	26.87099
494.665	43.73317
494.874	-30.02763
495.083	33.19413
495.291	37.40968
495.5	22.65567
495.709	-15.27784
495.917	-6.84884
496.126	62.70491
496.335	-13.17063
496.543	-13.17063
496.752	24.76332
496.96	7.90283
497.169	45.84105
497.377	24.76332
497.586	-63.73688
497.794	50.05688
498.003	43.73317
498.211	47.94895
498.42	28.97868
498.628	-19.49219
498.837	81.6785
499.045	3.68794
499.254	-36.3486
499.462	-38.45555
499.671	5.79537
499.879	62.70491
500.087	12.11781
500.296	-53.20343
500.504	79.57023
500.713	12.11781
500.921	98.54544
501.129	39.51749
501.338	88.00344
501.546	-46.88306
501.754	24.76332
501.962	85.8951
502.171	88.00344
502.379	33.19413
502.587	31.08639
502.795	22.65567
503.004	5.79537
503.212	39.51749
503.42	16.33288
503.628	14.22533
503.837	92.22017
504.045	37.40968
504.253	35.30189
504.461	12.11781
504.669	-21.59933
504.877	20.54805
505.085	37.40968
505.294	-55.31017
505.502	14.22533
505.71	71.13739
505.918	56.38079
506.126	50.05688
506.334	20.54805
506.542	33.19413
506.75	102.7624
506.958	-21.59933
507.166	-27.92059
507.374	-21.59933
507.582	-11.06339
507.79	7.90283
507.998	-4.74153
508.206	37.40968
508.414	-2.6342
508.622	16.33288
508.83	12.11781
509.037	90.11179
509.245	5.79537
509.453	71.13739
509.661	-42.66935
509.869	83.78679
510.077	-21.59933
510.285	-34.24164
510.492	39.51749
510.7	98.54544
510.908	50.05688
511.116	41.62532
511.324	104.87091
511.531	-4.74153
511.739	24.76332
511.947	45.84105
512.155	28.97868
512.362	28.97868
512.57	7.90283
512.778	28.97868
512.985	10.01031
513.193	47.94895
513.401	-15.27784
513.608	121.73979
513.816	50.05688
514.024	41.62532
514.231	56.38079
514.439	3.68794
514.646	58.48881
514.854	-36.3486
515.061	-48.98987
515.269	83.78679
515.477	33.19413
515.684	37.40968
515.892	28.97868
516.099	54.2728
516.307	-4.74153
516.514	52.16483
516.722	12.11781
516.929	47.94895
517.136	-40.56246
517.344	33.19413
517.551	54.2728
517.759	37.40968
517.966	-21.59933
518.173	83.78679
518.381	-27.92059
518.588	-0.52684
518.796	31.08639
519.003	79.57023
519.21	54.2728
519.418	-0.52684
519.625	-2.6342
519.832	26.87099
520.039	3.68794
520.247	18.44046
520.454	16.33288
520.661	-40.56246
520.868	88.00344
521.076	37.40968
521.283	54.2728
521.49	31.08639
521.697	20.54805
521.904	-25.81353
522.112	24.76332
522.319	64.813
522.526	73.24557
522.733	14.22533
522.94	14.22533
523.147	24.76332
523.354	62.70491
523.561	20.54805
523.768	-36.3486
523.975	83.78679
524.183	-13.17063
524.39	75.35377
524.597	3.68794
524.804	113.30518
525.011	45.84105
525.218	113.30518
525.425	3.68794
525.632	-6.84884
525.838	60.59685
526.045	45.84105
526.252	58.48881
526.459	-2.6342
526.666	-13.17063
526.873	90.11179
527.08	28.97868
527.287	47.94895
527.494	77.46199
527.701	77.46199
527.907	20.54805
528.114	92.22017
528.321	-61.63024
528.528	14.22533
528.735	50.05688
528.941	71.13739
529.148	-40.56246
529.355	90.11179
529.562	64.813
529.768	3.68794
529.975	66.92111
530.182	-6.84884
530.388	71.13739
530.595	41.62532
530.802	31.08639
531.008	14.22533
531.215	47.94895
531.422	-19.49219
531.628	75.35377
531.835	102.7624
532.042	-11.06339
532.248	88.00344
532.455	3.68794
532.661	50.05688
532.868	88.00344
533.074	14.22533
533.281	-17.38502
533.487	81.6785
533.694	-34.24164
533.9	24.76332
534.107	62.70491
534.313	121.73979
534.52	90.11179
534.726	28.97868
534.933	-21.59933
535.139	26.87099
535.345	37.40968
535.552	-27.92059
535.758	96.437
535.965	83.78679
536.171	73.24557
536.377	121.73979
536.584	7.90283
536.79	79.57023
536.996	20.54805
537.203	75.35377
537.409	64.813
537.615	79.57023
537.821	28.97868
538.028	37.40968
538.234	10.01031
538.44	45.84105
538.646	41.62532
538.853	24.76332
539.059	83.78679
539.265	73.24557
539.471	54.2728
539.677	43.73317
539.883	106.97945
540.09	64.813
540.296	113.30518
540.502	28.97868
540.708	37.40968
540.914	37.40968
541.12	98.54544
541.326	31.08639
541.532	37.40968
541.738	45.84105
541.944	39.51749
542.15	45.84105
542.356	5.79537
542.562	71.13739
542.768	77.46199
542.974	117.52244
543.18	33.19413
543.386	96.437
543.592	-46.88306
543.798	-4.74153
544.004	24.76332
544.21	102.7624
544.415	81.6785
544.621	3.68794
544.827	71.13739
545.033	56.38079
545.239	-44.77622
545.445	62.70491
545.651	83.78679
545.856	31.08639
546.062	81.6785
546.268	90.11179
546.474	18.44046
546.679	62.70491
546.885	-13.17063
547.091	153.37267
547.297	64.813
547.502	18.44046
547.708	174.4639
547.914	47.94895
548.119	130.17476
548.325	50.05688
548.531	111.19658
548.736	22.65567
548.942	96.437
549.147	75.35377
549.353	75.35377
549.559	138.61006
549.764	71.13739
549.97	10.01031
550.175	66.92111
550.381	106.97945
550.586	50.05688
550.792	66.92111
550.997	104.87091
551.203	100.65391
551.408	113.30518
551.614	79.57023
551.819	130.17476
552.025	24.76332
552.23	104.87091
552.435	104.87091
552.641	28.97868
552.846	75.35377
553.052	79.57023
553.257	54.2728
553.462	12.11781
553.668	3.68794
553.873	43.73317
554.078	71.13739
554.283	31.08639
554.489	121.73979
554.694	79.57023
554.899	96.437
555.105	96.437
555.31	83.78679
555.515	75.35377
555.72	77.46199
555.925	37.40968
556.131	31.08639
556.336	69.02924
556.541	73.24557
556.746	111.19658
556.951	33.19413
557.156	113.30518
557.361	62.70491
557.567	92.22017
557.772	113.30518
557.977	47.94895
558.182	71.13739
558.387	77.46199
558.592	85.8951
558.797	45.84105
559.002	71.13739
559.207	47.94895
559.412	71.13739
559.617	106.97945
559.822	50.05688
560.027	41.62532
560.232	14.22533
560.437	66.92111
560.642	3.68794
560.847	37.40968
561.051	96.437
561.256	73.24557
561.461	33.19413
561.666	-0.52684
561.871	66.92111
562.076	60.59685
562.281	41.62532
562.485	81.6785
562.69	109.088
562.895	75.35377
563.1	130.17476
563.305	75.35377
563.509	109.088
563.714	79.57023
563.919	79.57023
564.123	47.94895
564.328	163.91802
564.533	50.05688
564.737	33.19413
564.942	45.84105
565.147	71.13739
565.351	144.93677
565.556	140.71894
565.761	123.8485
565.965	88.00344
566.17	58.48881
566.374	54.2728
566.579	85.8951
566.784	113.30518
566.988	45.84105
567.193	64.813
567.397	52.16483
567.602	138.61006
567.806	94.32857
568.011	92.22017
568.215	69.02924
568.42	113.30518
568.624	104.87091
568.828	102.7624
569.033	62.70491
569.237	159.69982
569.442	85.8951
569.646	81.6785
569.85	83.78679
570.055	106.97945
570.259	125.95723
570.463	109.088
570.668	79.57023
570.872	58.48881
571.076	140.71894
571.281	193.44776
571.485	71.13739
571.689	125.95723
571.893	142.82785
572.098	50.05688
572.302	100.65391
572.506	104.87091
572.71	180.79167
572.914	134.39237
573.119	64.813
573.323	144.93677
573.527	64.813
573.731	104.87091
573.935	28.97868
574.139	83.78679
574.343	79.57023
574.547	174.4639
574.751	159.69982
574.955	132.28355
575.159	79.57023
575.364	109.088
575.568	111.19658
575.772	56.38079
575.976	151.26366
576.18	90.11179
576.383	178.68239
576.587	111.19658
576.791	64.813
576.995	147.04571
577.199	225.09118
577.403	123.8485
577.607	106.97945
577.811	123.8485
578.015	71.13739
578.219	138.61006
578.422	113.30518
578.626	96.437
578.83	111.19658
579.034	191.33836
579.238	140.71894
579.442	54.2728
579.645	102.7624
579.849	191.33836
580.053	113.30518
580.257	96.437
580.46	189.22898
580.664	92.22017
580.868	92.22017
581.071	119.63111
581.275	113.30518
581.479	159.69982
581.682	104.87091
581.886	172.35468
582.09	130.17476
582.293	104.87091
582.497	64.813
582.7	142.82785
582.904	182.90097
583.107	155.4817
583.311	174.4639
583.515	149.15468
583.718	98.54544
583.922	128.06598
584.125	214.54287
584.329	149.15468
584.532	159.69982
584.735	199.77609
584.939	132.28355
585.142	81.6785
585.346	155.4817
585.549	109.088
585.753	104.87091
585.956	159.69982
586.159	159.69982
586.363	155.4817
586.566	125.95723
586.769	187.11962
586.973	132.28355
587.176	140.71894
587.379	166.02716
587.582	140.71894
587.786	106.97945
587.989	130.17476
588.192	182.90097
588.395	197.66663
588.599	182.90097
588.802	182.90097
589.005	62.70491
589.208	197.66663
589.411	180.79167
589.615	220.8718
589.818	125.95723
590.021	176.57313
590.224	121.73979
590.427	157.59075
590.63	130.17476
590.833	166.02716
591.036	128.06598
591.239	231.42039
591.442	206.10459
591.645	201.88557
591.848	222.98148
592.051	197.66663
592.254	159.69982
592.457	182.90097
592.66	244.07936
592.863	244.07936
593.066	159.69982
593.269	172.35468
593.472	172.35468
593.675	159.69982
593.878	180.79167
594.081	191.33836
594.284	193.44776
594.486	216.6525
594.689	182.90097
594.892	252.51905
595.095	163.91802
595.298	159.69982
595.5	132.28355
595.703	180.79167
595.906	233.53017
596.109	142.82785
596.311	208.21413
596.514	182.90097
596.717	62.70491
596.92	201.88557
597.122	206.10459
597.325	222.98148
597.528	252.51905
597.73	193.44776
597.933	201.88557
598.136	222.98148
598.338	239.85962
598.541	225.09118
598.743	191.33836
598.946	214.54287
599.148	214.54287
599.351	193.44776
599.554	132.28355
599.756	260.95905
599.959	248.29916
600.161	267.28925
600.363	216.6525
600.566	199.77609
600.768	313.71583
600.971	218.76214
601.173	216.6525
601.376	241.96948
601.578	121.73979
601.78	265.17916
601.983	172.35468
602.185	282.06037
602.388	233.53017
602.59	273.61962
602.792	216.6525
602.995	201.88557
603.197	225.09118
603.399	239.85962
603.601	256.73901
603.804	286.28086
604.006	239.85962
604.208	294.72206
604.41	290.50142
604.613	277.83996
604.815	197.66663
605.017	275.72978
605.219	222.98148
605.421	311.60534
605.623	256.73901
605.826	294.72206
606.028	328.48976
606.23	248.29916
606.432	248.29916
606.634	265.17916
606.836	231.42039
607.038	267.28925
607.24	235.63997
607.442	201.88557
607.644	225.09118
607.846	241.96948
608.048	225.09118
608.25	254.62902
608.452	197.66663
608.654	256.73901
608.856	241.96948
609.058	250.4091
609.26	239.85962
609.462	320.04741
609.664	256.73901
609.866	241.96948
610.067	292.61173
610.269	269.39935
610.471	324.26855
610.673	282.06037
610.875	311.60534
611.077	229.31064
611.278	282.06037
611.48	256.73901
611.682	288.39113
611.884	273.61962
612.085	284.17061
612.287	313.71583
612.489	185.01029
612.69	265.17916
612.892	254.62902
613.094	389.70517
613.295	326.37915
613.497	362.262
613.699	284.17061
613.9	301.05315
614.102	282.06037
614.304	366.48384
614.505	301.05315
614.707	286.28086
614.908	298.94277
615.11	317.93686
615.311	307.38441
615.513	374.92772
615.714	391.8163
615.916	269.39935
616.117	353.81853
616.319	364.37291
616.52	286.28086
616.722	315.82634
616.923	315.82634
617.124	286.28086
617.326	220.8718
617.527	332.71105
617.729	248.29916
617.93	324.26855
618.131	298.94277
618.333	360.15111
618.534	311.60534
618.735	336.93241
618.937	277.83996
619.138	336.93241
619.339	218.76214
619.54	396.03861
619.742	309.49486
619.943	377.03874
620.144	303.16355
620.345	328.48976
620.546	296.83241
620.748	311.60534
620.949	339.04311
621.15	421.37383
621.351	322.15797
621.552	362.262
621.753	330.6004
621.954	366.48384
622.155	252.51905
622.356	239.85962
622.558	353.81853
622.759	377.03874
622.96	322.15797
623.161	339.04311
623.362	345.37533
623.563	391.8163
623.764	292.61173
623.965	379.14977
624.166	305.27397
624.366	307.38441
624.567	339.04311
624.768	290.50142
624.969	317.93686
625.17	324.26855
625.371	387.59405
625.572	349.59689
625.773	396.03861
625.973	364.37291
626.174	317.93686
626.375	396.03861
626.576	417.15113
626.777	351.7077
626.977	360.15111
627.178	434.04231
627.379	379.14977
627.58	315.82634
627.78	358.04023
627.981	402.37219
628.182	436.15378
628.382	425.5966
628.583	434.04231
628.784	358.04023
628.984	307.38441
629.185	431.93086
629.386	374.92772
629.586	398.14978
629.787	303.16355
629.987	374.92772
630.188	408.70593
630.388	303.16355
630.589	444.59982
630.79	453.0461
630.99	370.70575
631.191	400.26098
631.391	469.9394
631.591	440.37677
631.792	379.14977
631.992	362.262
632.193	450.9345
632.393	450.9345
632.594	393.92744
632.794	444.59982
632.994	391.8163
633.195	537.52208
633.395	421.37383
633.595	453.0461
633.796	404.48342
633.996	396.03861
634.196	366.48384
634.397	588.21852
634.597	396.03861
634.797	503.72888
634.997	493.16926
635.198	550.19546
635.398	465.71598
635.598	552.30774
635.798	389.70517
635.998	457.26933
636.199	410.8172
636.399	522.73711
636.599	391.8163
636.799	543.85871
636.999	383.37188
637.199	423.48521
637.399	484.72183
637.599	478.38641
637.799	442.48828
637.999	628.35855
638.199	467.82768
638.399	461.49263
638.599	501.61693
638.799	611.45693
638.999	480.4982
639.199	480.4982
639.399	472.05113
639.599	463.6043
639.799	482.61001
639.999	564.98169
640.199	436.15378
640.399	531.18558
640.599	463.6043
640.799	588.21852
640.998	459.38097
641.198	560.75699
641.398	391.8163
641.598	493.16926
641.798	488.94552
641.997	535.4099
642.197	505.84085
642.397	535.4099
642.597	493.16926
642.796	586.10602
642.996	545.97095
643.196	558.64466
643.395	484.72183
643.595	558.64466
643.795	493.16926
643.994	655.82537
644.194	556.53234
644.394	484.72183
644.593	564.98169
644.793	647.37382
644.992	510.06483
645.192	590.33104
645.392	486.83367
645.591	615.68226
645.791	560.75699
645.99	560.75699
646.19	548.0832
646.389	552.30774
646.589	645.26097
646.788	653.71246
646.987	497.39307
647.187	630.47131
647.386	579.76858
647.586	660.05121
647.785	537.52208
647.984	594.55612
648.184	594.55612
648.383	577.65613
648.582	615.68226
648.782	662.16415
648.981	543.85871
649.18	729.78425
649.38	564.98169
649.579	636.80966
649.778	545.97095
649.977	636.80966
650.177	552.30774
650.376	543.85871
650.575	545.97095
650.774	537.52208
650.973	552.30774
651.173	624.13307
651.372	524.84921
651.571	679.06809
651.77	562.86933
651.969	742.46427
652.168	641.03529
652.367	619.90764
652.566	603.00642
652.765	664.2771
652.964	679.06809
653.163	643.14812
653.362	691.74653
653.561	721.33112
653.76	622.02035
653.959	702.31221
654.158	679.06809
654.357	689.63343
654.556	586.10602
654.755	704.42538
654.954	605.11903
655.153	731.89756
655.352	495.28116
655.551	670.61603
655.749	571.31885
655.948	636.80966
656.147	619.90764
656.346	776.27947
656.545	577.65613
656.743	704.42538
656.942	689.63343
657.141	725.55767
657.34	594.55612
657.538	761.485
657.737	636.80966
657.936	723.44439
658.135	649.48669
658.333	655.82537
658.532	613.56959
658.731	734.01088
658.929	746.69103
659.128	710.76495
659.326	564.98169
659.525	698.0859
659.724	695.97277
659.922	657.93829
660.121	679.06809
660.319	740.35091
660.518	704.42538
660.716	634.69687
660.915	706.53856
661.113	731.89756
661.312	590.33104
661.51	814.32458
661.709	738.23756
661.907	780.50655
662.105	670.61603
662.304	788.96083
662.502	734.01088
662.701	839.68967
662.899	649.48669
663.097	729.78425
663.296	717.10462
663.494	793.18802
663.692	748.80442
663.891	759.37154
664.089	729.78425
664.287	818.55201
664.485	674.84204
664.684	750.91783
664.882	681.18114
665.08	776.27947
665.278	622.02035
665.476	782.6201
665.675	763.59846
665.873	797.41526
666.071	725.55767
666.269	776.27947
666.467	753.03124
666.665	869.28389
666.863	666.39007
667.061	850.25884
667.259	687.52034
667.457	793.18802
667.655	746.69103
667.853	854.48657
668.051	767.82543
668.249	780.50655
668.447	660.05121
668.645	822.77947
668.843	710.76495
669.041	860.82823
669.239	788.96083
669.437	797.41526
669.635	788.96083
669.833	797.41526
670.031	670.61603
670.229	884.08162
670.426	695.97277
670.624	898.87975
670.822	662.16415
671.02	848.14499
671.218	788.96083
671.415	755.14466
671.613	740.35091
671.811	818.55201
672.009	848.14499
672.206	852.3727
672.404	807.98352
672.602	822.77947
672.799	750.91783
672.997	907.336
673.195	738.23756
673.392	936.93384
673.59	721.33112
673.788	746.69103
673.985	755.14466
674.183	835.46207
674.38	788.96083
674.578	822.77947
674.775	755.14466
674.973	837.57587
675.17	744.57764
675.368	867.16996
675.565	767.82543
675.763	848.14499
675.96	683.29419
676.158	898.87975
676.355	742.46427
676.553	958.07604
676.75	763.59846
676.947	814.32458
677.145	835.46207
677.342	873.51177
677.539	810.0972
677.737	890.42363
677.934	670.61603
678.131	873.51177
678.329	884.08162
678.526	854.48657
678.723	843.91731
678.92	894.65167
679.118	816.43829
679.315	862.94213
679.512	681.18114
679.709	926.36301
679.906	704.42538
680.104	871.39783
680.301	818.55201
680.498	865.05604
680.695	795.30164
680.892	848.14499
681.089	693.85964
681.286	799.52889
681.483	712.87816
681.68	860.82823
681.877	772.05243
682.075	909.45008
682.272	774.16594
682.469	869.28389
682.665	755.14466
682.862	810.0972
683.059	748.80442
683.256	865.05604
683.453	843.91731
683.65	827.00696
683.847	884.08162
684.044	841.80349
684.241	797.41526
684.438	898.87975
684.635	917.90649
684.831	960.1903
685.028	926.36301
685.225	873.51177
685.422	920.02061
685.619	924.24887
685.815	738.23756
686.012	913.67827
686.209	731.89756
686.405	1000.36252
686.602	750.91783
686.799	875.62572
686.996	759.37154
687.192	1042.65153
687.389	903.10786
687.586	1029.96458
687.782	900.9938
687.979	928.47716
688.175	782.6201
688.372	772.05243
688.568	873.51177
688.765	814.32458
688.962	858.71433
689.158	757.2581
689.355	769.93892
689.551	892.53765
689.748	723.44439
689.944	831.2345
690.14	827.00696
690.337	884.08162
690.533	729.78425
690.73	894.65167
690.926	717.10462
691.123	854.48657
691.319	843.91731
691.515	1032.07905
691.712	780.50655
691.908	934.81966
692.104	858.71433
692.301	1004.59131
692.497	755.14466
692.693	888.30962
692.889	860.82823
693.086	1025.73564
693.282	805.86985
693.478	890.42363
693.674	831.2345
693.87	949.61908
694.067	848.14499
694.263	949.61908
694.459	856.60045
694.655	865.05604
694.851	932.70549
695.047	928.47716
695.243	852.3727
695.439	848.14499
695.635	765.71194
695.831	850.25884
696.027	814.32458
696.224	865.05604
696.42	816.43829
696.615	846.03115
696.811	774.16594
697.007	1068.02606
697.203	848.14499
697.399	958.07604
697.595	934.81966
697.791	911.56417
697.987	814.32458
698.183	955.96179
698.379	884.08162
698.575	1036.30803
698.77	839.68967
698.966	877.73969
699.162	917.90649
699.358	977.10462
699.554	693.85964
699.749	894.65167
699.945	837.57587
700.141	837.57587
700.337	833.34828
700.532	1004.59131
700.728	843.91731
700.924	865.05604
701.119	721.33112
701.315	881.96763
701.511	858.71433
701.706	949.61908
701.902	776.27947
702.097	890.42363
702.293	841.80349
702.489	772.05243
702.684	807.98352
702.88	928.47716
703.075	708.65175
703.271	860.82823
703.466	729.78425
703.662	884.08162
703.857	803.75619
704.053	848.14499
704.248	869.28389
704.443	947.50485
704.639	869.28389
704.834	1061.68236
705.03	854.48657
705.225	839.68967
705.42	862.94213
705.616	1046.88057
705.811	888.30962
706.006	888.30962
706.202	797.41526
706.397	970.7617
706.592	767.82543
706.787	915.79237
706.983	805.86985
707.178	941.16222
707.373	858.71433
707.568	1042.65153
707.763	928.47716
707.959	1017.27783
708.154	738.23756
708.349	841.80349
708.544	810.0972
708.739	962.30457
708.934	905.22192
709.129	890.42363
709.324	867.16996
709.519	1051.10962
709.714	924.24887
709.909	941.16222
710.104	831.2345
710.299	1032.07905
710.494	835.46207
710.689	1053.22416
710.884	962.30457
711.079	941.16222
711.274	788.96083
711.469	881.96763
711.664	848.14499
711.859	987.67629
712.054	974.99031
712.249	966.53312
712.443	850.25884
712.638	860.82823
712.833	782.6201
713.028	1042.65153
713.223	799.52889
713.417	974.99031
713.612	846.03115
713.807	858.71433
714.002	903.10786
714.196	979.21894
714.391	772.05243
714.586	974.99031
714.78	841.80349
714.975	915.79237
715.17	782.6201
715.364	939.04803
715.559	892.53765
715.754	962.30457
715.948	848.14499
716.143	966.53312
716.337	879.85366
716.532	949.61908
716.726	818.55201
716.921	907.336
717.115	721.33112
717.31	810.0972
717.504	763.59846
717.699	892.53765
717.893	884.08162
718.088	884.08162
718.282	915.79237
718.476	852.3727
718.671	765.71194
718.865	936.93384
719.059	807.98352
719.254	865.05604
719.448	676.95506
719.642	960.1903
719.837	763.59846
720.031	909.45008
720.225	761.485
720.419	1025.73564
720.614	848.14499
720.808	1008.82012
721.002	835.46207
721.196	1078.59901
721.39	900.9938
721.585	903.10786
721.779	856.60045
721.973	784.73367
722.167	757.2581
722.361	746.69103
722.555	769.93892
722.749	968.64741
722.943	898.87975
723.137	778.393
723.331	856.60045
723.525	900.9938
723.719	900.9938
723.913	1006.70571
724.107	913.67827
724.301	875.62572
724.495	721.33112
724.689	865.05604
724.883	827.00696
725.077	966.53312
725.271	835.46207
725.465	949.61908
725.659	755.14466
725.853	890.42363
726.046	822.77947
726.24	873.51177
726.434	812.21088
726.628	841.80349
726.822	687.52034
727.015	949.61908
727.209	776.27947
727.403	805.86985
727.596	827.00696
727.79	964.41884
727.984	831.2345
728.177	960.1903
728.371	774.16594
728.565	884.08162
728.758	831.2345
728.952	848.14499
729.146	824.89321
729.339	865.05604
729.533	763.59846
729.726	810.0972
729.92	797.41526
730.113	958.07604
730.307	814.32458
730.5	932.70549
730.694	852.3727
730.887	814.32458
731.081	837.57587
731.274	898.87975
731.468	860.82823
731.661	920.02061
731.854	839.68967
732.048	958.07604
732.241	822.77947
732.435	858.71433
732.628	740.35091
732.821	926.36301
733.014	846.03115
733.208	917.90649
733.401	1057.45324
733.594	926.36301
733.788	881.96763
733.981	991.90501
734.174	966.53312
734.367	941.16222
734.56	905.22192
734.754	839.68967
734.947	888.30962
735.14	900.9938
735.333	848.14499
735.526	936.93384
735.719	873.51177
735.912	888.30962
736.105	936.93384
736.298	991.90501
736.491	884.08162
736.684	822.77947
736.877	765.71194
737.07	841.80349
737.263	833.34828
737.456	763.59846
737.649	858.71433
737.842	905.22192
738.035	831.2345
738.228	913.67827
738.421	907.336
738.614	846.03115
738.807	892.53765
739	900.9938
739.192	888.30962
739.385	793.18802
739.578	860.82823
739.771	966.53312
739.964	803.75619
740.156	871.39783
740.349	911.56417
740.542	873.51177
740.735	941.16222
740.927	932.70549
741.12	858.71433
741.313	881.96763
741.505	833.34828
741.698	941.16222
741.891	788.96083
742.083	1025.73564
742.276	714.99138
742.468	890.42363
742.661	829.12073
742.854	873.51177
743.046	748.80442
743.239	805.86985
743.431	958.07604
743.624	865.05604
743.816	835.46207
744.009	898.87975
744.201	843.91731
744.393	831.2345
744.586	827.00696
744.778	924.24887
744.971	810.0972
745.163	985.56195
745.355	856.60045
745.548	903.10786
745.74	879.85366
745.932	917.90649
746.125	890.42363
746.317	953.84754
746.509	926.36301
746.702	939.04803
746.894	873.51177
747.086	848.14499
747.278	740.35091
747.471	862.94213
747.663	805.86985
747.855	852.3727
748.047	892.53765
748.239	970.7617
748.431	788.96083
748.623	835.46207
748.815	782.6201
749.008	793.18802
749.2	706.53856
749.392	831.2345
749.584	833.34828
749.776	856.60045
749.968	742.46427
750.16	994.01938
750.352	797.41526
750.544	818.55201
750.736	841.80349
750.928	852.3727
751.12	818.55201
751.311	949.61908
751.503	780.50655
751.695	867.16996
751.887	928.47716
752.079	898.87975
752.271	780.50655
752.463	824.89321
752.654	831.2345
752.846	833.34828
753.038	776.27947
753.23	848.14499
753.421	797.41526
753.613	799.52889
753.805	788.96083
753.997	810.0972
754.188	892.53765
754.38	896.76571
754.572	759.37154
754.763	805.86985
754.955	856.60045
755.146	873.51177
755.338	841.80349
755.53	911.56417
755.721	850.25884
755.913	793.18802
756.104	900.9938
756.296	814.32458
756.487	655.82537
756.679	894.65167
756.87	865.05604
757.062	797.41526
757.253	856.60045
757.445	780.50655
757.636	748.80442
757.827	753.03124
758.019	772.05243
758.21	996.13375
758.401	841.80349
758.593	835.46207
758.784	797.41526
758.975	742.46427
759.167	793.18802
759.358	839.68967
759.549	740.35091
759.74	1002.47691
759.932	729.78425
760.123	843.91731
760.314	734.01088
760.505	769.93892
760.696	822.77947
760.888	875.62572
761.079	687.52034
761.27	879.85366
761.461	750.91783
761.652	814.32458
761.843	689.63343
762.034	750.91783
762.225	712.87816
762.416	763.59846
762.607	708.65175
762.798	805.86985
762.989	729.78425
763.18	854.48657
763.371	763.59846
763.562	721.33112
763.753	742.46427
763.944	744.57764
764.135	744.57764
764.326	772.05243
764.517	750.91783
764.708	695.97277
764.899	617.79494
765.089	725.55767
765.28	803.75619
765.471	691.74653
765.662	581.88105
765.853	704.42538
766.043	647.37382
766.234	765.71194
766.425	676.95506
766.615	738.23756
766.806	596.66867
766.997	714.99138
767.187	742.46427
767.378	755.14466
767.569	607.23165
767.759	822.77947
767.95	780.50655
768.141	814.32458
768.331	624.13307
768.522	653.71246
768.712	594.55612
768.903	594.55612
769.093	681.18114
769.284	719.21786
769.474	605.11903
769.665	641.03529
769.855	704.42538
770.046	814.32458
770.236	596.66867
770.426	689.63343
770.617	706.53856
770.807	774.16594
770.998	617.79494
771.188	636.80966
771.378	579.76858
771.569	636.80966
771.759	664.2771
771.949	672.72903
772.139	497.39307
772.33	577.65613
772.52	594.55612
772.71	581.88105
772.9	575.54369
773.09	641.03529
773.281	683.29419
773.471	600.89382
773.661	679.06809
773.851	702.31221
774.041	624.13307
774.231	723.44439
774.421	560.75699
774.611	588.21852
774.802	588.21852
774.992	634.69687
775.182	693.85964
775.372	573.43126
775.562	531.18558
775.752	695.97277
775.942	603.00642
776.131	628.35855
776.321	653.71246
776.511	683.29419
776.701	545.97095
776.891	636.80966
777.081	624.13307
777.271	560.75699
777.461	598.78124
777.651	689.63343
777.84	586.10602
778.03	611.45693
778.22	499.50499
778.41	605.11903
778.599	619.90764
778.789	590.33104
778.979	495.28116
779.169	596.66867
779.358	467.82768
779.548	653.71246
779.738	554.42003
779.927	664.2771
780.117	450.9345
780.307	653.71246
780.496	645.26097
780.686	596.66867
780.875	643.14812
781.065	630.47131
781.254	573.43126
781.444	600.89382
781.633	581.88105
781.823	693.85964
782.012	539.63428
782.202	526.96132
782.391	434.04231
782.581	491.05738
782.77	611.45693
782.96	493.16926
783.149	611.45693
783.338	526.96132
783.528	545.97095
783.717	493.16926
783.906	501.61693
784.096	564.98169
784.285	484.72183
784.474	554.42003
784.663	558.64466
784.853	465.71598
785.042	381.26081
785.231	533.29774
785.42	493.16926
785.61	571.31885
785.799	480.4982
785.988	567.09406
786.177	478.38641
786.366	588.21852
786.555	531.18558
786.744	510.06483
786.933	469.9394
787.122	505.84085
787.312	505.84085
787.501	501.61693
787.69	529.07344
787.879	537.52208
788.068	488.94552
788.257	412.9285
788.445	461.49263
788.634	529.07344
788.823	446.71136
789.012	634.69687
789.201	459.38097
789.39	514.28887
789.579	560.75699
789.768	564.98169
789.957	569.20645
790.145	425.5966
790.334	476.27464
790.523	427.708
790.712	510.06483
790.9	461.49263
791.089	374.92772
791.278	518.51296
791.467	518.51296
791.655	526.96132
791.844	385.48296
792.033	486.83367
792.221	402.37219
792.41	436.15378
792.599	315.82634
792.787	455.15771
792.976	425.5966
793.164	467.82768
793.353	465.71598
793.541	478.38641
793.73	442.48828
793.918	518.51296
794.107	402.37219
794.295	442.48828
794.484	427.708
794.672	503.72888
794.861	512.17684
795.049	560.75699
795.238	472.05113
795.426	524.84921
795.614	436.15378
795.803	467.82768
795.991	417.15113
796.179	459.38097
796.368	476.27464
796.556	552.30774
796.744	370.70575
796.932	417.15113
797.121	442.48828
797.309	482.61001
797.497	402.37219
797.685	429.81942
797.874	383.37188
798.062	417.15113
798.25	317.93686
798.438	377.03874
798.626	412.9285
798.814	377.03874
799.002	415.03981
799.19	366.48384
799.378	436.15378
799.566	436.15378
799.755	423.48521
799.943	474.16288
800.131	374.92772
800.318	389.70517
800.506	429.81942
800.694	510.06483
800.882	358.04023
801.07	440.37677
801.258	391.8163
801.446	387.59405
801.634	438.26527
801.822	429.81942
802.01	438.26527
802.197	415.03981
802.385	341.15383
802.573	339.04311
802.761	301.05315
802.949	408.70593
803.136	355.92937
803.324	383.37188
803.512	368.59479
803.699	438.26527
803.887	417.15113
804.075	455.15771
804.262	383.37188
804.45	453.0461
804.638	387.59405
804.825	450.9345
805.013	446.71136
805.201	467.82768
805.388	419.26247
805.576	417.15113
805.763	419.26247
805.951	446.71136
806.138	419.26247
806.326	438.26527
806.513	349.59689
806.701	450.9345
806.888	334.82172
807.075	387.59405
807.263	370.70575
807.45	358.04023
807.638	381.26081
807.825	526.96132
808.012	478.38641
808.2	450.9345
808.387	484.72183
808.574	493.16926
808.761	374.92772
808.949	493.16926
809.136	427.708
809.323	417.15113
809.51	417.15113
809.698	554.42003
809.885	358.04023
810.072	434.04231
810.259	459.38097
810.446	398.14978
810.633	372.81673
810.82	406.59467
811.008	510.06483
811.195	381.26081
811.382	459.38097
811.569	400.26098
811.756	461.49263
811.943	444.59982
812.13	408.70593
812.317	383.37188
812.504	412.9285
812.691	442.48828
812.878	404.48342
813.064	505.84085
813.251	446.71136
813.438	545.97095
813.625	491.05738
813.812	488.94552
813.999	402.37219
814.186	383.37188
814.372	360.15111
814.559	484.72183
814.746	467.82768
814.933	336.93241
815.12	453.0461
815.306	493.16926
815.493	429.81942
815.68	469.9394
815.866	377.03874
816.053	383.37188
816.24	336.93241
816.426	469.9394
816.613	324.26855
816.799	524.84921
816.986	484.72183
817.173	436.15378
817.359	429.81942
817.546	463.6043
817.732	431.93086
817.919	472.05113
818.105	341.15383
818.292	440.37677
818.478	404.48342
818.665	341.15383
818.851	381.26081
819.037	472.05113
819.224	423.48521
819.41	488.94552
819.597	400.26098
819.783	459.38097
819.969	480.4982
820.156	469.9394
820.342	493.16926
820.528	499.50499
820.714	427.708
820.901	476.27464
821.087	444.59982
821.273	529.07344
821.459	429.81942
821.646	419.26247
821.832	421.37383
822.018	434.04231
822.204	387.59405
822.39	467.82768
822.576	358.04023
822.762	408.70593
822.948	379.14977
823.134	419.26247
823.32	358.04023
823.507	486.83367
823.693	391.8163
823.879	436.15378
824.065	374.92772
824.25	408.70593
824.436	391.8163
824.622	330.6004
824.808	455.15771
824.994	421.37383
825.18	377.03874
825.366	417.15113
825.552	368.59479
825.738	417.15113
825.923	417.15113
826.109	440.37677
826.295	334.82172
826.481	491.05738
826.667	412.9285
826.852	385.48296
827.038	412.9285
827.224	391.8163
827.409	440.37677
827.595	425.5966
827.781	372.81673
827.966	400.26098
828.152	368.59479
828.338	351.7077
828.523	421.37383
828.709	387.59405
828.894	396.03861
829.08	353.81853
829.266	294.72206
829.451	366.48384
829.637	362.262
829.822	341.15383
830.008	360.15111
830.193	351.7077
830.378	423.48521
830.564	358.04023
830.749	387.59405
830.935	358.04023
831.12	322.15797
831.305	322.15797
831.491	377.03874
831.676	434.04231
831.861	248.29916
832.047	322.15797
832.232	315.82634
832.417	366.48384
832.602	313.71583
832.788	317.93686
832.973	298.94277
833.158	284.17061
833.343	282.06037
833.528	408.70593
833.714	358.04023
833.899	324.26855
834.084	317.93686
834.269	383.37188
834.454	298.94277
834.639	275.72978
834.824	315.82634
835.009	282.06037
835.194	267.28925
835.379	366.48384
835.564	267.28925
835.749	351.7077
835.934	334.82172
836.119	339.04311
836.304	256.73901
836.489	307.38441
836.674	290.50142
836.859	402.37219
837.044	379.14977
837.228	265.17916
837.413	298.94277
837.598	313.71583
837.783	275.72978
837.968	353.81853
838.152	320.04741
838.337	301.05315
838.522	298.94277
838.707	336.93241
838.891	290.50142
839.076	282.06037
839.261	374.92772
839.445	273.61962
839.63	239.85962
839.815	379.14977
839.999	265.17916
840.184	317.93686
840.368	358.04023
840.553	298.94277
840.737	282.06037
840.922	353.81853
841.106	315.82634
841.291	250.4091
841.475	248.29916
841.66	282.06037
841.844	248.29916
842.029	324.26855
842.213	282.06037
842.397	408.70593
842.582	256.73901
842.766	273.61962
842.951	214.54287
843.135	370.70575
843.319	288.39113
843.504	216.6525
843.688	206.10459
843.872	315.82634
844.056	252.51905
844.241	252.51905
844.425	256.73901
844.609	252.51905
844.793	208.21413
844.977	250.4091
845.161	265.17916
845.346	396.03861
845.53	248.29916
845.714	301.05315
845.898	313.71583
846.082	307.38441
846.266	368.59479
846.45	271.50948
846.634	298.94277
846.818	368.59479
847.002	271.50948
847.186	317.93686
847.37	235.63997
847.554	368.59479
847.738	248.29916
847.922	199.77609
848.106	265.17916
848.29	252.51905
848.473	220.8718
848.657	286.28086
848.841	298.94277
849.025	345.37533
849.209	267.28925
849.392	216.6525
849.576	222.98148
849.76	269.39935
849.944	157.59075
850.127	239.85962
850.311	193.44776
850.495	290.50142
850.678	267.28925
850.862	301.05315
851.046	222.98148
851.229	195.55718
851.413	248.29916
851.596	227.2009
851.78	231.42039
851.964	277.83996
852.147	144.93677
852.331	229.31064
852.514	244.07936
852.698	292.61173
852.881	176.57313
853.065	151.26366
853.248	206.10459
853.431	290.50142
853.615	214.54287
853.798	231.42039
853.982	195.55718
854.165	298.94277
854.348	180.79167
854.532	290.50142
854.715	163.91802
854.898	269.39935
855.081	203.99507
855.265	229.31064
855.448	216.6525
855.631	284.17061
855.814	239.85962
855.997	197.66663
856.181	222.98148
856.364	187.11962
856.547	252.51905
856.73	222.98148
856.913	182.90097
857.096	252.51905
857.279	155.4817
857.462	191.33836
857.645	166.02716
857.828	222.98148
858.011	195.55718
858.194	159.69982
858.377	180.79167
858.56	277.83996
858.743	222.98148
858.926	142.82785
859.109	147.04571
859.292	147.04571
859.475	71.13739
859.658	258.84902
859.841	138.61006
860.023	208.21413
860.206	222.98148
860.389	180.79167
860.572	182.90097
860.755	191.33836
860.937	199.77609
861.12	172.35468
861.303	142.82785
861.486	210.32369
861.668	199.77609
861.851	220.8718
862.034	197.66663
862.216	267.28925
862.399	119.63111
862.581	248.29916
862.764	195.55718
862.947	231.42039
863.129	71.13739
863.312	174.4639
863.494	239.85962
863.677	248.29916
863.859	260.95905
864.042	168.13631
864.224	189.22898
864.406	185.01029
864.589	90.11179
864.771	142.82785
864.954	252.51905
865.136	191.33836
865.318	208.21413
865.501	98.54544
865.683	163.91802
865.865	132.28355
866.048	222.98148
866.23	172.35468
866.412	134.39237
866.594	159.69982
866.777	144.93677
866.959	159.69982
867.141	130.17476
867.323	138.61006
867.505	138.61006
867.687	182.90097
867.869	130.17476
868.052	149.15468
868.234	117.52244
868.416	155.4817
868.598	166.02716
868.78	149.15468
868.962	121.73979
869.144	218.76214
869.326	174.4639
869.508	231.42039
869.69	206.10459
869.872	197.66663
870.054	147.04571
870.236	121.73979
870.417	96.437
870.599	123.8485
870.781	149.15468
870.963	136.50121
871.145	100.65391
871.327	113.30518
871.508	104.87091
871.69	151.26366
871.872	130.17476
872.054	96.437
872.235	166.02716
872.417	138.61006
872.599	172.35468
872.78	172.35468
872.962	98.54544
873.144	163.91802
873.325	138.61006
873.507	71.13739
873.689	66.92111
873.87	125.95723
874.052	140.71894
874.233	182.90097
874.415	161.80891
874.596	121.73979
874.778	128.06598
874.959	151.26366
875.141	3.68794
875.322	138.61006
875.503	140.71894
875.685	115.4138
875.866	96.437
876.048	121.73979
876.229	109.088
876.41	113.30518
876.592	153.37267
876.773	130.17476
876.954	159.69982
877.136	189.22898
877.317	199.77609
877.498	180.79167
877.679	121.73979
877.86	138.61006
878.042	147.04571
878.223	180.79167
878.404	113.30518
878.585	134.39237
878.766	119.63111
878.947	208.21413
879.128	138.61006
879.309	163.91802
879.49	140.71894
879.672	147.04571
879.853	39.51749
880.034	206.10459
880.215	138.61006
880.396	182.90097
880.576	193.44776
880.757	121.73979
880.938	138.61006
881.119	115.4138
881.3	117.52244
881.481	123.8485
881.662	66.92111
881.843	125.95723
882.023	153.37267
882.204	182.90097
882.385	88.00344
882.566	157.59075
882.747	138.61006
882.927	248.29916
883.108	153.37267
883.289	206.10459
883.469	117.52244
883.65	161.80891
883.831	180.79167
884.011	121.73979
884.192	163.91802
884.373	210.32369
884.553	123.8485
884.734	138.61006
884.914	222.98148
885.095	182.90097
885.275	172.35468
885.456	201.88557
885.636	206.10459
885.817	147.04571
885.997	147.04571
886.178	132.28355
886.358	178.68239
886.538	180.79167
886.719	58.48881
886.899	176.57313
887.08	191.33836
887.26	153.37267
887.44	222.98148
887.621	155.4817
887.801	191.33836
887.981	113.30518
888.161	102.7624
888.342	106.97945
888.522	201.88557
888.702	187.11962
888.882	130.17476
889.062	166.02716
889.242	174.4639
889.423	193.44776
889.603	94.32857
889.783	98.54544
889.963	37.40968
890.143	166.02716
890.323	269.39935
890.503	197.66663
890.683	166.02716
890.863	147.04571
891.043	79.57023
891.223	163.91802
891.403	180.79167
891.583	212.43327
891.763	222.98148
891.943	140.71894
892.122	151.26366
892.302	142.82785
892.482	113.30518
892.662	214.54287
892.842	104.87091
893.022	100.65391
893.201	155.4817
893.381	130.17476
893.561	199.77609
893.741	138.61006
893.92	199.77609
894.1	113.30518
894.28	104.87091
894.459	81.6785
894.639	62.70491
894.819	138.61006
894.998	88.00344
895.178	98.54544
895.357	142.82785
895.537	106.97945
895.716	147.04571
895.896	140.71894
896.075	155.4817
896.255	138.61006
896.434	115.4138
896.614	132.28355
896.793	56.38079
896.973	222.98148
897.152	125.95723
897.331	216.6525
897.511	176.57313
897.69	109.088
897.87	147.04571
898.049	121.73979
898.228	79.57023
898.407	149.15468
898.587	71.13739
898.766	182.90097
898.945	130.17476
899.124	123.8485
899.304	153.37267
899.483	172.35468
899.662	83.78679
899.841	199.77609
900.02	115.4138
900.199	98.54544
900.378	81.6785
900.557	166.02716
900.737	121.73979
900.916	96.437
901.095	176.57313
901.274	155.4817
901.453	88.00344
901.632	151.26366
901.811	159.69982
901.989	81.6785
902.168	117.52244
902.347	132.28355
902.526	64.813
902.705	64.813
902.884	115.4138
903.063	109.088
903.242	130.17476
903.42	62.70491
903.599	132.28355
903.778	115.4138
903.957	125.95723
904.135	109.088
904.314	130.17476
904.493	100.65391
904.672	138.61006
904.85	24.76332
905.029	88.00344
905.207	106.97945
905.386	100.65391
905.565	45.84105
905.743	73.24557
905.922	75.35377
906.1	33.19413
906.279	79.57023
906.457	47.94895
906.636	96.437
906.814	132.28355
906.993	79.57023
907.171	88.00344
907.35	125.95723
907.528	62.70491
907.707	106.97945
907.885	75.35377
908.063	90.11179
908.242	104.87091
908.42	69.02924
908.598	142.82785
908.777	3.68794
908.955	92.22017
909.133	37.40968
909.311	81.6785
909.49	39.51749
909.668	58.48881
909.846	104.87091
910.024	123.8485
910.202	50.05688
910.38	130.17476
910.559	14.22533
910.737	52.16483
910.915	121.73979
911.093	134.39237
911.271	58.48881
911.449	79.57023
911.627	73.24557
911.805	79.57023
911.983	115.4138
912.161	119.63111
912.339	92.22017
912.517	140.71894
912.695	73.24557
912.872	75.35377
913.05	47.94895
913.228	75.35377
913.406	47.94895
913.584	66.92111
913.762	100.65391
913.939	77.46199
914.117	138.61006
914.295	85.8951
914.473	18.44046
914.65	79.57023
914.828	33.19413
915.006	113.30518
915.184	41.62532
915.361	119.63111
915.539	62.70491
915.716	106.97945
915.894	12.11781
916.072	22.65567
916.249	96.437
916.427	113.30518
916.604	3.68794
916.782	92.22017
916.959	71.13739
917.137	88.00344
917.314	134.39237
917.492	130.17476
917.669	77.46199
917.847	69.02924
918.024	102.7624
918.201	102.7624
918.379	79.57023
918.556	45.84105
918.733	79.57023
918.911	50.05688
919.088	104.87091
919.265	96.437
919.442	149.15468
919.62	140.71894
919.797	43.73317
919.974	47.94895
920.151	-48.98987
920.328	58.48881
920.506	69.02924
920.683	58.48881
920.86	12.11781
921.037	14.22533
921.214	73.24557
921.391	98.54544
921.568	41.62532
921.745	102.7624
921.922	31.08639
922.099	66.92111
922.276	7.90283
922.453	45.84105
922.63	113.30518
922.807	31.08639
922.984	130.17476
923.161	128.06598
923.338	121.73979
923.514	90.11179
923.691	-8.95613
923.868	47.94895
924.045	100.65391
924.222	115.4138
924.399	88.00344
924.575	71.13739
924.752	96.437
924.929	73.24557
925.105	147.04571
925.282	147.04571
925.459	12.11781
925.635	81.6785
925.812	-17.38502
925.989	111.19658
926.165	5.79537
926.342	45.84105
926.518	73.24557
926.695	14.22533
926.871	50.05688
927.048	43.73317
927.224	43.73317
927.401	66.92111
927.577	140.71894
927.754	-13.17063
927.93	104.87091
928.107	-27.92059
928.283	73.24557
928.459	45.84105
928.636	16.33288
928.812	16.33288
928.988	45.84105
929.165	35.30189
929.341	20.54805
929.517	45.84105
929.693	117.52244
929.87	12.11781
930.046	-0.52684
930.222	3.68794
930.398	33.19413
930.574	66.92111
930.751	45.84105
930.927	121.73979
931.103	66.92111
931.279	45.84105
931.455	52.16483
931.631	62.70491
931.807	5.79537
931.983	41.62532
932.159	39.51749
932.335	18.44046
932.511	7.90283
932.687	90.11179
932.863	58.48881
933.039	85.8951
933.215	71.13739
933.391	113.30518
933.566	28.97868
933.742	12.11781
933.918	142.82785
934.094	-19.49219
934.27	5.79537
934.445	-6.84884
934.621	-27.92059
934.797	117.52244
934.973	50.05688
935.148	20.54805
935.324	28.97868
935.5	28.97868
935.675	64.813
935.851	45.84105
936.027	-2.6342
936.202	28.97868
936.378	-19.49219
936.553	45.84105
936.729	64.813
936.904	71.13739
937.08	35.30189
937.255	52.16483
937.431	12.11781
937.606	75.35377
937.782	56.38079
937.957	3.68794
938.133	130.17476
938.308	26.87099
938.483	45.84105
938.659	64.813
938.834	-38.45555
939.009	66.92111
939.185	-2.6342
939.36	7.90283
939.535	22.65567
939.71	45.84105
939.886	12.11781
940.061	31.08639
940.236	-19.49219
940.411	16.33288
940.586	39.51749
940.761	71.13739
940.937	12.11781
941.112	37.40968
941.287	-17.38502
941.462	37.40968
941.637	-11.06339
941.812	62.70491
941.987	62.70491
942.162	79.57023
942.337	31.08639
942.512	3.68794
942.687	-0.52684
942.862	47.94895
943.037	-2.6342
943.212	37.40968
943.386	-13.17063
943.561	33.19413
943.736	83.78679
943.911	54.2728
944.086	71.13739
944.26	-0.52684
944.435	-13.17063
944.61	64.813
944.785	60.59685
944.959	-53.20343
945.134	24.76332
945.309	16.33288
945.483	-38.45555
945.658	64.813
945.833	-25.81353
946.007	54.2728
946.182	69.02924
946.357	-27.92059
946.531	28.97868
946.706	66.92111
946.88	31.08639
947.055	62.70491
947.229	7.90283
947.404	45.84105
947.578	31.08639
947.752	37.40968
947.927	54.2728
948.101	-67.95008
948.276	79.57023
948.45	71.13739
948.624	-19.49219
948.799	12.11781
948.973	-4.74153
949.147	-0.52684
949.321	47.94895
949.496	75.35377
949.67	-11.06339
949.844	24.76332
950.018	-55.31017
950.193	83.78679
950.367	-40.56246
950.541	37.40968
950.715	-13.17063
950.889	5.79537
951.063	3.68794
951.237	-17.38502
951.411	-2.6342
951.585	111.19658
951.759	3.68794
951.933	28.97868
952.107	77.46199
952.281	64.813
952.455	58.48881
952.629	41.62532
952.803	31.08639
952.977	66.92111
953.151	3.68794
953.325	47.94895
953.499	7.90283
953.672	37.40968
953.846	-2.6342
954.02	-13.17063
954.194	-0.52684
954.368	1.58054
954.541	24.76332
954.715	43.73317
954.889	18.44046
955.062	-8.95613
955.236	45.84105
955.41	47.94895
955.583	77.46199
955.757	-42.66935
955.93	77.46199
956.104	58.48881
956.278	121.73979
956.451	39.51749
956.625	-17.38502
956.798	3.68794
956.972	12.11781
957.145	14.22533
957.319	39.51749
957.492	47.94895
957.665	45.84105
957.839	66.92111
958.012	-38.45555
958.185	-13.17063
958.359	7.90283
958.532	5.79537
958.705	28.97868
958.879	-0.52684
959.052	75.35377
959.225	88.00344
959.398	12.11781
959.572	-55.31017
959.745	-38.45555
959.918	-46.88306
960.091	43.73317
960.264	7.90283
960.438	-38.45555
960.611	52.16483
960.784	-55.31017
960.957	64.813
961.13	41.62532
961.303	28.97868
961.476	45.84105
961.649	-13.17063
961.822	62.70491
961.995	45.84105
962.168	24.76332
962.341	71.13739
962.514	47.94895
962.686	20.54805
962.859	47.94895
963.032	37.40968
963.205	-11.06339
963.378	-17.38502
963.551	12.11781
963.723	90.11179
963.896	138.61006
964.069	31.08639
964.242	28.97868
964.414	37.40968
964.587	64.813
964.76	16.33288
964.932	24.76332
965.105	-2.6342
965.278	47.94895
965.45	28.97868
965.623	60.59685
965.795	75.35377
965.968	-11.06339
966.14	81.6785
966.313	-30.02763
966.485	50.05688
966.658	22.65567
966.83	39.51749
967.003	20.54805
967.175	-42.66935
967.348	3.68794
967.52	37.40968
967.692	54.2728
967.865	79.57023
968.037	-4.74153
968.209	33.19413
968.382	64.813
968.554	-38.45555
968.726	-53.20343
968.898	28.97868
969.071	-21.59933
969.243	62.70491
969.415	16.33288
969.587	33.19413
969.759	64.813
969.932	7.90283
970.104	56.38079
970.276	-63.73688
970.448	58.48881
970.62	50.05688
970.792	41.62532
970.964	24.76332
971.136	54.2728
971.308	-0.52684
971.48	20.54805
971.652	-21.59933
971.824	-0.52684
971.996	26.87099
972.168	-21.59933
972.339	22.65567
972.511	5.79537
972.683	-11.06339
972.855	45.84105
973.027	-6.84884
973.199	64.813
973.37	64.813
973.542	3.68794
973.714	56.38079
973.886	3.68794
974.057	-44.77622
974.229	-11.06339
974.401	-6.84884
974.572	39.51749
974.744	31.08639
974.915	62.70491
975.087	39.51749
975.259	73.24557
975.43	26.87099
975.602	33.19413
975.773	28.97868
975.945	-13.17063
976.116	62.70491
976.288	71.13739
976.459	71.13739
976.63	45.84105
976.802	-11.06339
976.973	-15.27784
977.145	1.58054
977.316	-13.17063
977.487	-17.38502
977.659	14.22533
977.83	-23.70644
978.001	41.62532
978.172	98.54544
978.344	-8.95613
978.515	-17.38502
978.686	79.57023
978.857	3.68794
979.028	45.84105
979.2	-13.17063
979.371	16.33288
979.542	-27.92059
979.713	102.7624
979.884	56.38079
980.055	31.08639
980.226	58.48881
980.397	71.13739
980.568	-8.95613
980.739	-46.88306
980.91	39.51749
981.081	20.54805
981.252	28.97868
981.423	3.68794
981.594	-21.59933
981.765	24.76332
981.936	54.2728
982.106	62.70491
982.277	-6.84884
982.448	37.40968
982.619	5.79537
982.79	28.97868
982.96	28.97868
983.131	45.84105
983.302	-8.95613
983.472	24.76332
983.643	45.84105
983.814	-25.81353
983.984	-6.84884
984.155	50.05688
984.326	64.813
984.496	-27.92059
984.667	71.13739
984.837	45.84105
985.008	54.2728
985.178	-0.52684
985.349	-30.02763
985.519	5.79537
985.69	31.08639
985.86	54.2728
986.031	28.97868
986.201	83.78679
986.371	121.73979
986.542	-8.95613
986.712	24.76332
986.882	20.54805
987.053	16.33288
987.223	56.38079
987.393	92.22017
987.563	3.68794
987.734	28.97868
987.904	-46.88306
988.074	-55.31017
988.244	3.68794
988.414	7.90283
988.585	-27.92059
988.755	20.54805
988.925	33.19413
989.095	18.44046
989.265	-40.56246
989.435	28.97868
989.605	-17.38502
989.775	47.94895
989.945	12.11781
990.115	20.54805
990.285	-11.06339
990.455	35.30189
990.625	-30.02763
990.795	45.84105
990.965	77.46199
991.134	33.19413
991.304	28.97868
991.474	35.30189
991.644	45.84105
991.814	-38.45555
991.984	113.30518
992.153	31.08639
992.323	-13.17063
992.493	79.57023
992.662	-32.13465
992.832	-19.49219
993.002	-46.88306
993.171	85.8951
993.341	-8.95613
993.511	-42.66935
993.68	43.73317
993.85	28.97868
994.019	24.76332
994.189	56.38079
994.358	50.05688
994.528	7.90283
994.697	1.58054
994.867	28.97868
995.036	90.11179
995.206	-42.66935
995.375	35.30189
995.544	20.54805
995.714	43.73317
995.883	98.54544
996.052	24.76332
996.222	56.38079
996.391	-4.74153
996.56	77.46199
996.73	-27.92059
996.899	50.05688
997.068	18.44046
997.237	64.813
997.406	47.94895
997.576	-19.49219
997.745	3.68794
997.914	71.13739
998.083	39.51749
998.252	-74.26969
998.421	14.22533
998.59	45.84105
998.759	-21.59933
998.928	41.62532
999.097	98.54544
999.266	-6.84884
999.435	24.76332
999.604	-48.98987
999.773	71.13739
999.942	-27.92059
1000.111	41.62532
1000.28	96.437
1000.448	-32.13465
1000.617	20.54805
1000.786	88.00344
1000.955	-19.49219
1001.124	77.46199
1001.292	37.40968
1001.461	16.33288
1001.63	-11.06339
1001.798	24.76332
1001.967	-67.95008
1002.136	1.58054
1002.304	7.90283
1002.473	-38.45555
1002.642	60.59685
1002.81	-36.3486
1002.979	83.78679
1003.147	-8.95613
1003.316	-4.74153
1003.484	-101.65198
1003.653	33.19413
1003.821	41.62532
1003.99	12.11781
1004.158	-38.45555
1004.327	7.90283
1004.495	43.73317
1004.663	20.54805
1004.832	37.40968
1005	45.84105
1005.168	64.813
1005.337	31.08639
1005.505	5.79537
1005.673	-55.31017
1005.842	113.30518
1006.01	-8.95613
1006.178	37.40968
1006.346	-38.45555
1006.514	-42.66935
1006.683	50.05688
1006.851	-34.24164
1007.019	66.92111
1007.187	-25.81353
1007.355	12.11781
1007.523	14.22533
1007.691	54.2728
1007.859	-6.84884
1008.027	14.22533
1008.195	22.65567
1008.363	-19.49219
1008.531	-13.17063
1008.699	54.2728
1008.867	37.40968
1009.035	45.84105
1009.203	-36.3486
1009.37	-38.45555
1009.538	28.97868
1009.706	14.22533
1009.874	62.70491
1010.042	3.68794
1010.209	43.73317
1010.377	12.11781
1010.545	12.11781
1010.713	81.6785
1010.88	-25.81353
1011.048	-8.95613
1011.216	20.54805
1011.383	-46.88306
1011.551	-4.74153
1011.718	14.22533
1011.886	37.40968
1012.054	62.70491
1012.221	-101.65198
1012.389	33.19413
1012.556	-21.59933
1012.724	14.22533
1012.891	26.87099
1013.058	33.19413
1013.226	62.70491
1013.393	26.87099
1013.561	22.65567
1013.728	62.70491
1013.895	-11.06339
1014.063	-19.49219
1014.23	-15.27784
1014.397	60.59685
1014.565	-17.38502
1014.732	20.54805
1014.899	16.33288
1015.066	33.19413
1015.233	41.62532
1015.401	47.94895
1015.568	-4.74153
1015.735	14.22533
1015.902	-42.66935
1016.069	28.97868
1016.236	18.44046
1016.403	88.00344
1016.57	-2.6342
1016.737	-61.63024
1016.904	12.11781
1017.071	16.33288
1017.238	18.44046
1017.405	-46.88306
1017.572	-46.88306
1017.739	-8.95613
1017.906	16.33288
1018.073	24.76332
1018.24	16.33288
1018.407	58.48881
1018.573	-46.88306
1018.74	20.54805
1018.907	22.65567
1019.074	37.40968
1019.241	14.22533
1019.407	79.57023
1019.574	-8.95613
1019.741	-13.17063
1019.907	3.68794
1020.074	90.11179
1020.241	-36.3486
1020.407	33.19413
1020.574	10.01031
1020.74	12.11781
1020.907	-40.56246
1021.073	18.44046
1021.24	-23.70644
1021.406	7.90283
1021.573	14.22533
1021.739	-8.95613
1021.906	16.33288
1022.072	50.05688
1022.239	5.79537
1022.405	64.813
1022.571	-21.59933
1022.738	109.088
1022.904	-30.02763
1023.07	-13.17063
1023.237	58.48881
1023.403	-55.31017
1023.569	-21.59933
1023.735	39.51749
1023.902	64.813
1024.068	-2.6342
1024.234	-32.13465
1024.4	-46.88306
1024.566	14.22533
1024.732	5.79537
1024.898	-11.06339
1025.065	-11.06339
1025.231	-27.92059
1025.397	28.97868
1025.563	-4.74153
1025.729	-46.88306
1025.895	16.33288
1026.061	37.40968
1026.227	14.22533
1026.392	5.79537
1026.558	-11.06339
1026.724	-0.52684
1026.89	-67.95008
1027.056	-11.06339
1027.222	33.19413
1027.388	-21.59933
1027.553	79.57023
1027.719	-2.6342
1027.885	56.38079
1028.051	14.22533
1028.216	60.59685
1028.382	52.16483
1028.548	37.40968
1028.713	3.68794
1028.879	113.30518
1029.045	71.13739
1029.21	26.87099
1029.376	22.65567
1029.541	-38.45555
1029.707	-2.6342
1029.873	-44.77622
1030.038	33.19413
1030.204	41.62532
1030.369	28.97868
1030.534	12.11781
1030.7	-17.38502
1030.865	-13.17063
1031.031	20.54805
1031.196	22.65567
1031.361	-11.06339
1031.527	37.40968
1031.692	50.05688
1031.857	22.65567
1032.023	3.68794
1032.188	24.76332
1032.353	50.05688
1032.518	-42.66935
1032.684	-17.38502
1032.849	28.97868
1033.014	28.97868
1033.179	39.51749
1033.344	98.54544
1033.509	14.22533
1033.674	28.97868
1033.839	12.11781
1034.004	-57.41689
1034.17	73.24557
1034.335	37.40968
1034.5	16.33288
1034.664	35.30189
1034.829	-44.77622
1034.994	50.05688
1035.159	56.38079
1035.324	28.97868
1035.489	-2.6342
1035.654	-40.56246
1035.819	41.62532
1035.984	-34.24164
1036.148	1.58054
1036.313	3.68794
1036.478	24.76332
1036.643	56.38079
1036.807	-80.58907
1036.972	3.68794
1037.137	-42.66935
1037.301	56.38079
1037.466	28.97868
1037.631	41.62532
1037.795	33.19413
1037.96	37.40968
1038.124	-13.17063
1038.289	-4.74153
1038.454	20.54805
1038.618	-6.84884
1038.783	-8.95613
1038.947	71.13739
1039.111	-8.95613
1039.276	37.40968
1039.44	-17.38502
1039.605	37.40968
1039.769	-13.17063
1039.933	102.7624
1040.098	47.94895
1040.262	1.58054
1040.426	7.90283
1040.591	-40.56246
1040.755	37.40968
1040.919	5.79537
1041.083	-2.6342
1041.248	12.11781
1041.412	-8.95613
1041.576	37.40968
1041.74	-21.59933
1041.904	-13.17063
1042.068	47.94895
1042.232	31.08639
1042.397	5.79537
1042.561	-17.38502
1042.725	3.68794
1042.889	33.19413
1043.053	14.22533
1043.217	54.2728
1043.381	3.68794
1043.544	-13.17063
1043.708	24.76332
1043.872	1.58054
1044.036	54.2728
1044.2	24.76332
1044.364	47.94895
1044.528	3.68794
1044.691	92.22017
1044.855	3.68794
1045.019	1.58054
1045.183	52.16483
1045.346	-59.52357
1045.51	98.54544
1045.674	31.08639
1045.837	56.38079
1046.001	-2.6342
1046.165	-4.74153
1046.328	-13.17063
1046.492	60.59685
1046.655	3.68794
1046.819	115.4138
1046.983	24.76332
1047.146	28.97868
1047.31	-2.6342
1047.473	28.97868
1047.636	20.54805
1047.8	12.11781
1047.963	-15.27784
1048.127	-4.74153
1048.29	-65.84349
