Data from mixed_try1_USB4F045381__6__00231.txt Node

Date: Thu Apr 03 20:23:33 EDT 2025
User: mmckonesweet
Spectrometer: USB4F04538
Trigger mode: 4
Integration Time (sec): 2.700000E-3
Scans to average: 1
Electric dark correction enabled: true
Nonlinearity correction enabled: true
Boxcar width: 0
XAxis mode: Wavelengths
Number of Pixels in Spectrum: 3648
>>>>>Begin Spectral Data<<<<<
345.52	-7.20006
345.736	-7.20006
345.952	-7.20006
346.168	-78.83371
346.384	-28.27177
346.6	9.65906
346.816	-24.05762
347.032	-2.98542
347.248	-38.8067
347.464	-19.84338
347.68	87.65205
347.896	-13.52183
348.112	41.27401
348.328	-5.09275
348.544	-30.3788
348.76	28.62739
348.975	-32.48582
349.191	11.76656
349.407	-2.98542
349.623	-13.52183
349.839	-13.52183
350.055	26.51971
350.27	-2.98542
350.486	9.65906
350.702	51.8135
350.918	-26.16471
351.133	1.22931
351.349	-11.4146
351.565	-11.4146
351.781	13.87408
351.996	60.24551
352.212	-32.48582
352.428	34.9506
352.644	13.87408
352.859	-15.62904
353.075	-32.48582
353.291	43.38186
353.506	9.65906
353.722	30.7351
353.938	-5.09275
354.153	75.0024
354.369	62.35357
354.584	47.59764
354.8	75.0024
355.016	-24.05762
355.231	20.19678
355.447	-17.73622
355.662	60.24551
355.878	72.8942
356.093	34.9506
356.309	1.22931
356.524	26.51971
356.74	24.41204
356.955	-72.51427
357.171	-21.95051
357.386	18.08919
357.602	-17.73622
357.817	77.11062
358.033	60.24551
358.248	-61.98135
358.464	-2.98542
358.679	-83.04654
358.895	13.87408
359.11	47.59764
359.325	11.76656
359.541	-30.3788
359.756	96.08559
359.972	-5.09275
360.187	26.51971
360.402	41.27401
360.618	-15.62904
360.833	-2.98542
361.048	-30.3788
361.264	-24.05762
361.479	41.27401
361.694	-7.20006
361.909	1.22931
362.125	-36.69976
362.34	32.84284
362.555	3.33671
362.77	81.32712
362.986	34.9506
363.201	37.05838
363.416	39.16618
363.631	18.08919
363.847	93.97717
364.062	-30.3788
364.277	1.22931
364.492	37.05838
364.707	51.8135
364.922	13.87408
365.138	18.08919
365.353	18.08919
365.568	15.98162
365.783	34.9506
365.998	30.7351
366.213	11.76656
366.428	60.24551
366.643	32.84284
366.858	43.38186
367.073	34.9506
367.288	34.9506
367.503	-15.62904
367.718	43.38186
367.933	-28.27177
368.148	5.44413
368.363	18.08919
368.578	26.51971
368.793	-5.09275
369.008	51.8135
369.223	28.62739
369.438	47.59764
369.653	22.3044
369.868	-55.66129
370.083	9.65906
370.298	60.24551
370.513	-32.48582
370.728	24.41204
370.943	34.9506
371.157	26.51971
371.372	70.78603
371.587	60.24551
371.802	87.65205
372.017	26.51971
372.232	22.3044
372.446	9.65906
372.661	26.51971
372.876	37.05838
373.091	-74.62077
373.306	20.19678
373.52	-70.40773
373.735	5.44413
373.95	-21.95051
374.165	20.19678
374.379	53.92147
374.594	-64.08798
374.809	-57.768
375.023	22.3044
375.238	68.67788
375.453	-24.05762
375.667	62.35357
375.882	45.48974
376.097	49.70556
376.311	81.32712
376.526	3.33671
376.741	-15.62904
376.955	-40.91361
377.17	-55.66129
377.384	9.65906
377.599	18.08919
377.813	-17.73622
378.028	39.16618
378.242	60.24551
378.457	28.62739
378.672	51.8135
378.886	5.44413
379.101	-13.52183
379.315	-2.98542
379.53	20.19678
379.744	-40.91361
379.958	28.62739
380.173	45.48974
380.387	79.21886
380.602	39.16618
380.816	1.22931
381.031	-15.62904
381.245	47.59764
381.459	1.22931
381.674	28.62739
381.888	18.08919
382.103	20.19678
382.317	-49.34101
382.531	119.27966
382.746	-108.32136
382.96	47.59764
383.174	60.24551
383.388	-15.62904
383.603	18.08919
383.817	81.32712
384.031	-55.66129
384.246	79.21886
384.46	-32.48582
384.674	-7.20006
384.888	-91.4719
385.103	22.3044
385.317	-11.4146
385.531	85.54372
385.745	13.87408
385.959	47.59764
386.174	32.84284
386.388	43.38186
386.602	26.51971
386.816	45.48974
387.03	28.62739
387.244	77.11062
387.458	70.78603
387.672	-40.91361
387.887	-19.84338
388.101	53.92147
388.315	47.59764
388.529	7.55158
388.743	3.33671
388.957	-28.27177
389.171	93.97717
389.385	43.38186
389.599	-13.52183
389.813	70.78603
390.027	-7.20006
390.241	-7.20006
390.455	64.46165
390.669	1.22931
390.883	43.38186
391.097	60.24551
391.311	77.11062
391.525	30.7351
391.738	60.24551
391.952	37.05838
392.166	85.54372
392.38	45.48974
392.594	62.35357
392.808	26.51971
393.022	20.19678
393.236	53.92147
393.449	-21.95051
393.663	43.38186
393.877	20.19678
394.091	34.9506
394.305	22.3044
394.518	-40.91361
394.732	51.8135
394.946	39.16618
395.16	-0.87807
395.373	49.70556
395.587	18.08919
395.801	18.08919
396.015	34.9506
396.228	-7.20006
396.442	9.65906
396.656	22.3044
396.869	18.08919
397.083	9.65906
397.297	-19.84338
397.51	37.05838
397.724	26.51971
397.938	1.22931
398.151	-32.48582
398.365	123.49705
398.578	11.76656
398.792	51.8135
399.005	9.65906
399.219	79.21886
399.433	-32.48582
399.646	18.08919
399.86	-66.19459
400.073	62.35357
400.287	91.86877
400.5	87.65205
400.714	5.44413
400.927	26.51971
401.141	34.9506
401.354	102.41098
401.567	-28.27177
401.781	-19.84338
401.994	62.35357
402.208	3.33671
402.421	-38.8067
402.635	37.05838
402.848	60.24551
403.061	-7.20006
403.275	13.87408
403.488	70.78603
403.701	9.65906
403.915	68.67788
404.128	34.9506
404.341	13.87408
404.555	83.43541
404.768	-7.20006
404.981	9.65906
405.195	1.22931
405.408	30.7351
405.621	9.65906
405.834	24.41204
406.048	-0.87807
406.261	20.19678
406.474	28.62739
406.687	-11.4146
406.9	43.38186
407.114	-74.62077
407.327	102.41098
407.54	13.87408
407.753	26.51971
407.966	37.05838
408.179	87.65205
408.392	-66.19459
408.605	26.51971
408.819	-5.09275
409.032	34.9506
409.245	-49.34101
409.458	-11.4146
409.671	83.43541
409.884	43.38186
410.097	-5.09275
410.31	30.7351
410.523	3.33671
410.736	22.3044
410.949	26.51971
411.162	9.65906
411.375	60.24551
411.588	-47.2342
411.801	-15.62904
412.014	43.38186
412.227	1.22931
412.44	26.51971
412.653	-45.12736
412.865	43.38186
413.078	-17.73622
413.291	20.19678
413.504	43.38186
413.717	22.3044
413.93	43.38186
414.143	-30.3788
414.356	49.70556
414.568	-11.4146
414.781	39.16618
414.994	79.21886
415.207	-26.16471
415.42	62.35357
415.632	22.3044
415.845	-5.09275
416.058	30.7351
416.271	3.33671
416.483	26.51971
416.696	70.78603
416.909	47.59764
417.121	34.9506
417.334	-28.27177
417.547	58.13747
417.759	87.65205
417.972	30.7351
418.185	-15.62904
418.397	51.8135
418.61	60.24551
418.823	102.41098
419.035	-15.62904
419.248	-7.20006
419.46	-19.84338
419.673	45.48974
419.885	3.33671
420.098	15.98162
420.311	28.62739
420.523	-104.10916
420.736	53.92147
420.948	-11.4146
421.161	39.16618
421.373	-45.12736
421.586	-38.8067
421.798	112.95374
422.01	39.16618
422.223	-5.09275
422.435	28.62739
422.648	56.02946
422.86	-59.87469
423.073	-30.3788
423.285	85.54372
423.497	104.51949
423.71	-99.89684
423.922	-30.3788
424.134	26.51971
424.347	28.62739
424.559	32.84284
424.771	18.08919
424.984	93.97717
425.196	85.54372
425.408	-7.20006
425.621	68.67788
425.833	34.9506
426.045	-13.52183
426.257	117.171
426.47	18.08919
426.682	68.67788
426.894	66.56975
427.106	9.65906
427.318	11.76656
427.531	-7.20006
427.743	18.08919
427.955	51.8135
428.167	51.8135
428.379	34.9506
428.591	-7.20006
428.804	24.41204
429.016	81.32712
429.228	32.84284
429.44	32.84284
429.652	70.78603
429.864	-28.27177
430.076	30.7351
430.288	15.98162
430.5	-7.20006
430.712	-61.98135
430.924	39.16618
431.136	70.78603
431.348	-9.30734
431.56	18.08919
431.772	77.11062
431.984	-19.84338
432.196	5.44413
432.408	-24.05762
432.62	5.44413
432.832	62.35357
433.044	26.51971
433.256	53.92147
433.468	43.38186
433.679	77.11062
433.891	3.33671
434.103	26.51971
434.315	-80.94014
434.527	47.59764
434.739	56.02946
434.95	9.65906
435.162	1.22931
435.374	30.7351
435.586	60.24551
435.798	11.76656
436.009	58.13747
436.221	49.70556
436.433	15.98162
436.645	34.9506
436.856	85.54372
437.068	45.48974
437.28	34.9506
437.491	22.3044
437.703	-32.48582
437.915	-28.27177
438.126	58.13747
438.338	-40.91361
438.55	-30.3788
438.761	70.78603
438.973	-2.98542
439.184	1.22931
439.396	32.84284
439.608	43.38186
439.819	30.7351
440.031	70.78603
440.242	53.92147
440.454	39.16618
440.665	-15.62904
440.877	37.05838
441.088	9.65906
441.3	26.51971
441.511	51.8135
441.723	68.67788
441.934	26.51971
442.146	45.48974
442.357	32.84284
442.569	68.67788
442.78	-0.87807
442.991	89.7604
443.203	9.65906
443.414	20.19678
443.626	37.05838
443.837	79.21886
444.048	-32.48582
444.26	85.54372
444.471	-45.12736
444.682	-13.52183
444.894	93.97717
445.105	32.84284
445.316	-7.20006
445.528	1.22931
445.739	-5.09275
445.95	-28.27177
446.161	32.84284
446.373	3.33671
446.584	-15.62904
446.795	-21.95051
447.006	18.08919
447.217	34.9506
447.429	51.8135
447.64	37.05838
447.851	11.76656
448.062	58.13747
448.273	18.08919
448.484	-15.62904
448.695	1.22931
448.907	28.62739
449.118	-7.20006
449.329	72.8942
449.54	26.51971
449.751	70.78603
449.962	-66.19459
450.173	77.11062
450.384	13.87408
450.595	43.38186
450.806	-40.91361
451.017	30.7351
451.228	93.97717
451.439	49.70556
451.65	26.51971
451.861	-5.09275
452.072	-0.87807
452.283	43.38186
452.494	-34.5928
452.705	9.65906
452.915	51.8135
453.126	-7.20006
453.337	-15.62904
453.548	18.08919
453.759	-2.98542
453.97	81.32712
454.181	3.33671
454.391	26.51971
454.602	53.92147
454.813	-7.20006
455.024	-21.95051
455.235	7.55158
455.445	-15.62904
455.656	18.08919
455.867	28.62739
456.078	70.78603
456.288	-21.95051
456.499	1.22931
456.71	-43.0205
456.921	9.65906
457.131	-2.98542
457.342	60.24551
457.553	115.06236
457.763	-21.95051
457.974	32.84284
458.184	56.02946
458.395	22.3044
458.606	85.54372
458.816	26.51971
459.027	26.51971
459.237	79.21886
459.448	13.87408
459.659	85.54372
459.869	43.38186
460.08	-21.95051
460.29	-11.4146
460.501	-15.62904
460.711	72.8942
460.922	-21.95051
461.132	72.8942
461.343	62.35357
461.553	37.05838
461.764	22.3044
461.974	51.8135
462.184	-2.98542
462.395	-24.05762
462.605	-28.27177
462.816	49.70556
463.026	26.51971
463.236	68.67788
463.447	37.05838
463.657	85.54372
463.867	-57.768
464.078	-7.20006
464.288	68.67788
464.498	5.44413
464.709	53.92147
464.919	-32.48582
465.129	30.7351
465.339	-7.20006
465.55	41.27401
465.76	93.97717
465.97	-5.09275
466.18	34.9506
466.391	77.11062
466.601	-15.62904
466.811	9.65906
467.021	9.65906
467.231	-7.20006
467.441	47.59764
467.651	26.51971
467.862	22.3044
468.072	77.11062
468.282	70.78603
468.492	18.08919
468.702	43.38186
468.912	5.44413
469.122	13.87408
469.332	3.33671
469.542	-15.62904
469.752	37.05838
469.962	72.8942
470.172	18.08919
470.382	30.7351
470.592	64.46165
470.802	93.97717
471.012	47.59764
471.222	-17.73622
471.432	-7.20006
471.642	96.08559
471.852	47.59764
472.062	-13.52183
472.272	49.70556
472.482	45.48974
472.691	60.24551
472.901	45.48974
473.111	30.7351
473.321	-45.12736
473.531	-28.27177
473.741	32.84284
473.95	-11.4146
474.16	77.11062
474.37	-15.62904
474.58	60.24551
474.79	1.22931
474.999	77.11062
475.209	13.87408
475.419	64.46165
475.628	51.8135
475.838	85.54372
476.048	51.8135
476.258	26.51971
476.467	-40.91361
476.677	56.02946
476.886	1.22931
477.096	-5.09275
477.306	-5.09275
477.515	79.21886
477.725	66.56975
477.935	60.24551
478.144	47.59764
478.354	85.54372
478.563	39.16618
478.773	-13.52183
478.982	15.98162
479.192	22.3044
479.401	-0.87807
479.611	-15.62904
479.82	-15.62904
480.03	26.51971
480.239	34.9506
480.449	-7.20006
480.658	-30.3788
480.868	18.08919
481.077	60.24551
481.287	1.22931
481.496	-49.34101
481.705	28.62739
481.915	-95.68442
482.124	85.54372
482.333	20.19678
482.543	39.16618
482.752	28.62739
482.961	-72.51427
483.171	20.19678
483.38	30.7351
483.589	-45.12736
483.799	37.05838
484.008	30.7351
484.217	-17.73622
484.426	-47.2342
484.636	13.87408
484.845	-7.20006
485.054	15.98162
485.263	34.9506
485.472	-2.98542
485.682	34.9506
485.891	39.16618
486.1	15.98162
486.309	39.16618
486.518	26.51971
486.727	70.78603
486.936	-40.91361
487.146	60.24551
487.355	28.62739
487.564	68.67788
487.773	-34.5928
487.982	37.05838
488.191	26.51971
488.4	-19.84338
488.609	-28.27177
488.818	47.59764
489.027	24.41204
489.236	41.27401
489.445	9.65906
489.654	39.16618
489.863	-36.69976
490.072	-21.95051
490.281	77.11062
490.49	60.24551
490.698	26.51971
490.907	-2.98542
491.116	47.59764
491.325	22.3044
491.534	-21.95051
491.743	5.44413
491.952	75.0024
492.16	77.11062
492.369	13.87408
492.578	34.9506
492.787	117.171
492.996	11.76656
493.204	28.62739
493.413	77.11062
493.622	68.67788
493.831	34.9506
494.039	47.59764
494.248	34.9506
494.457	22.3044
494.665	11.76656
494.874	26.51971
495.083	-5.09275
495.291	43.38186
495.5	87.65205
495.709	30.7351
495.917	43.38186
496.126	34.9506
496.335	45.48974
496.543	15.98162
496.752	26.51971
496.96	15.98162
497.169	34.9506
497.377	68.67788
497.586	45.48974
497.794	-15.62904
498.003	39.16618
498.211	18.08919
498.42	34.9506
498.628	53.92147
498.837	-34.5928
499.045	24.41204
499.254	85.54372
499.462	43.38186
499.671	-13.52183
499.879	22.3044
500.087	-49.34101
500.296	91.86877
500.504	30.7351
500.713	-19.84338
500.921	30.7351
501.129	37.05838
501.338	-15.62904
501.546	32.84284
501.754	22.3044
501.962	30.7351
502.171	-32.48582
502.379	100.3025
502.587	51.8135
502.795	20.19678
503.004	91.86877
503.212	53.92147
503.42	-2.98542
503.628	47.59764
503.837	28.62739
504.045	11.76656
504.253	47.59764
504.461	-57.768
504.669	43.38186
504.877	-43.0205
505.085	66.56975
505.294	20.19678
505.502	115.06236
505.71	53.92147
505.918	11.76656
506.126	37.05838
506.334	32.84284
506.542	7.55158
506.75	70.78603
506.958	45.48974
507.166	13.87408
507.374	60.24551
507.582	72.8942
507.79	26.51971
507.998	-2.98542
508.206	-0.87807
508.414	-13.52183
508.622	77.11062
508.83	34.9506
509.037	83.43541
509.245	-24.05762
509.453	-40.91361
509.661	-17.73622
509.869	-7.20006
510.077	18.08919
510.285	60.24551
510.492	83.43541
510.7	49.70556
510.908	-13.52183
511.116	34.9506
511.324	85.54372
511.531	93.97717
511.739	53.92147
511.947	-57.768
512.155	-5.09275
512.362	-2.98542
512.57	62.35357
512.778	26.51971
512.985	-21.95051
513.193	72.8942
513.401	79.21886
513.608	-47.2342
513.816	43.38186
514.024	9.65906
514.231	144.58528
514.439	37.05838
514.646	28.62739
514.854	28.62739
515.061	18.08919
515.269	9.65906
515.477	-38.8067
515.684	30.7351
515.892	1.22931
516.099	39.16618
516.307	7.55158
516.514	39.16618
516.722	-45.12736
516.929	18.08919
517.136	1.22931
517.344	93.97717
517.551	-32.48582
517.759	3.33671
517.966	100.3025
518.173	45.48974
518.381	-32.48582
518.588	93.97717
518.796	127.71452
519.003	15.98162
519.21	-7.20006
519.418	7.55158
519.625	34.9506
519.832	9.65906
520.039	-13.52183
520.247	28.62739
520.454	26.51971
520.661	89.7604
520.868	20.19678
521.076	127.71452
521.283	91.86877
521.49	1.22931
521.697	5.44413
521.904	77.11062
522.112	79.21886
522.319	22.3044
522.526	34.9506
522.733	9.65906
522.94	26.51971
523.147	11.76656
523.354	18.08919
523.561	43.38186
523.768	62.35357
523.975	64.46165
524.183	13.87408
524.39	47.59764
524.597	20.19678
524.804	60.24551
525.011	-2.98542
525.218	58.13747
525.425	13.87408
525.632	85.54372
525.838	34.9506
526.045	26.51971
526.252	47.59764
526.459	47.59764
526.666	1.22931
526.873	34.9506
527.08	138.25859
527.287	53.92147
527.494	110.84515
527.701	-15.62904
527.907	102.41098
528.114	53.92147
528.321	112.95374
528.528	51.8135
528.735	39.16618
528.941	7.55158
529.148	26.51971
529.355	-5.09275
529.562	56.02946
529.768	7.55158
529.975	119.27966
530.182	20.19678
530.388	41.27401
530.595	79.21886
530.802	43.38186
531.008	37.05838
531.215	45.48974
531.422	43.38186
531.628	70.78603
531.835	20.19678
532.042	-13.52183
532.248	45.48974
532.455	81.32712
532.661	75.0024
532.868	70.78603
533.074	60.24551
533.281	28.62739
533.487	37.05838
533.694	-15.62904
533.9	51.8135
534.107	-9.30734
534.313	117.171
534.52	-28.27177
534.726	136.14973
534.933	-15.62904
535.139	11.76656
535.345	13.87408
535.552	83.43541
535.758	87.65205
535.965	64.46165
536.171	34.9506
536.377	-7.20006
536.584	43.38186
536.79	91.86877
536.996	68.67788
537.203	62.35357
537.409	30.7351
537.615	34.9506
537.821	9.65906
538.028	98.19403
538.234	77.11062
538.44	-13.52183
538.646	51.8135
538.853	20.19678
539.059	115.06236
539.265	75.0024
539.471	68.67788
539.677	9.65906
539.883	104.51949
540.09	79.21886
540.296	9.65906
540.502	39.16618
540.708	13.87408
540.914	51.8135
541.12	85.54372
541.326	39.16618
541.532	106.62802
541.738	72.8942
541.944	30.7351
542.15	112.95374
542.356	45.48974
542.562	22.3044
542.768	115.06236
542.974	64.46165
543.18	1.22931
543.386	110.84515
543.592	56.02946
543.798	18.08919
544.004	39.16618
544.21	45.48974
544.415	56.02946
544.621	45.48974
544.827	24.41204
545.033	34.9506
545.239	9.65906
545.445	30.7351
545.651	64.46165
545.856	68.67788
546.062	26.51971
546.268	53.92147
546.474	24.41204
546.679	64.46165
546.885	58.13747
547.091	3.33671
547.297	110.84515
547.502	110.84515
547.708	22.3044
547.914	26.51971
548.119	77.11062
548.325	22.3044
548.531	15.98162
548.736	9.65906
548.942	-5.09275
549.147	18.08919
549.353	3.33671
549.559	45.48974
549.764	-2.98542
549.97	110.84515
550.175	13.87408
550.381	85.54372
550.586	75.0024
550.792	53.92147
550.997	-7.20006
551.203	51.8135
551.408	1.22931
551.614	-28.27177
551.819	104.51949
552.025	34.9506
552.23	144.58528
552.435	-0.87807
552.641	100.3025
552.846	49.70556
553.052	43.38186
553.257	37.05838
553.462	26.51971
553.668	93.97717
553.873	37.05838
554.078	136.14973
554.283	53.92147
554.489	93.97717
554.694	106.62802
554.899	77.11062
555.105	70.78603
555.31	47.59764
555.515	11.76656
555.72	13.87408
555.925	79.21886
556.131	87.65205
556.336	28.62739
556.541	-15.62904
556.746	121.38835
556.951	127.71452
557.156	53.92147
557.361	178.33085
557.567	81.32712
557.772	87.65205
557.977	77.11062
558.182	62.35357
558.387	93.97717
558.592	81.32712
558.797	77.11062
559.002	115.06236
559.207	104.51949
559.412	93.97717
559.617	96.08559
559.822	142.47636
560.027	64.46165
560.232	13.87408
560.437	89.7604
560.642	121.38835
560.847	142.47636
561.051	70.78603
561.256	98.19403
561.461	112.95374
561.666	79.21886
561.871	161.45739
562.076	104.51949
562.281	62.35357
562.485	45.48974
562.69	81.32712
562.895	47.59764
563.1	96.08559
563.305	163.5665
563.509	182.54942
563.714	39.16618
563.919	112.95374
564.123	140.36746
564.328	18.08919
564.533	93.97717
564.737	85.54372
564.942	72.8942
565.147	104.51949
565.351	146.69422
565.556	96.08559
565.761	134.0409
565.965	81.32712
566.17	62.35357
566.374	144.58528
566.579	20.19678
566.784	77.11062
566.988	125.60578
567.193	58.13747
567.397	87.65205
567.602	148.80318
567.806	127.71452
568.011	112.95374
568.215	138.25859
568.42	186.76807
568.624	58.13747
568.828	157.23924
569.033	49.70556
569.237	144.58528
569.442	43.38186
569.646	53.92147
569.85	127.71452
570.055	77.11062
570.259	18.08919
570.463	68.67788
570.668	127.71452
570.872	127.71452
571.076	112.95374
571.281	89.7604
571.485	153.02117
571.689	70.78603
571.893	72.8942
572.098	79.21886
572.302	157.23924
572.506	138.25859
572.71	203.64348
572.914	127.71452
573.119	174.11236
573.323	110.84515
573.527	138.25859
573.731	112.95374
573.935	112.95374
574.139	169.89395
574.343	68.67788
574.547	93.97717
574.751	161.45739
574.955	203.64348
575.159	93.97717
575.364	98.19403
575.568	163.5665
575.772	70.78603
575.976	106.62802
576.18	138.25859
576.383	87.65205
576.587	176.22159
576.791	96.08559
576.995	102.41098
577.199	53.92147
577.403	121.38835
577.607	32.84284
577.811	83.43541
578.015	153.02117
578.219	93.97717
578.422	163.5665
578.626	32.84284
578.83	72.8942
579.034	138.25859
579.238	138.25859
579.442	117.171
579.645	155.13019
579.849	43.38186
580.053	163.5665
580.257	142.47636
580.46	136.14973
580.664	119.27966
580.868	131.93208
581.071	56.02946
581.275	127.71452
581.479	136.14973
581.682	159.34831
581.886	85.54372
582.09	144.58528
582.293	146.69422
582.497	104.51949
582.7	79.21886
582.904	186.76807
583.107	144.58528
583.311	127.71452
583.515	127.71452
583.718	110.84515
583.922	138.25859
584.125	110.84515
584.329	157.23924
584.532	146.69422
584.735	163.5665
584.939	161.45739
585.142	115.06236
585.346	138.25859
585.549	155.13019
585.753	178.33085
585.956	104.51949
586.159	169.89395
586.363	161.45739
586.566	186.76807
586.769	136.14973
586.973	150.91217
587.176	161.45739
587.379	203.64348
587.582	254.27736
587.786	110.84515
587.989	172.00315
588.192	138.25859
588.395	222.62986
588.599	155.13019
588.802	169.89395
589.005	83.43541
589.208	228.95901
589.411	169.89395
589.615	136.14973
589.818	186.76807
590.021	220.52019
590.224	195.20561
590.427	222.62986
590.63	205.753
590.833	188.87742
591.036	180.44012
591.239	201.53399
591.442	169.89395
591.645	136.14973
591.848	205.753
592.051	165.67563
592.254	108.73657
592.457	161.45739
592.66	129.82329
592.863	110.84515
593.066	127.71452
593.269	188.87742
593.472	212.08167
593.675	138.25859
593.878	197.31505
594.081	195.20561
594.284	231.06877
594.486	180.44012
594.689	222.62986
594.892	190.9868
595.095	186.76807
595.298	195.20561
595.5	239.50798
595.703	193.0962
595.906	214.19127
596.109	195.20561
596.311	161.45739
596.514	155.13019
596.717	190.9868
596.92	245.8376
597.122	250.05744
597.325	186.76807
597.528	188.87742
597.73	146.69422
597.933	262.71742
598.136	197.31505
598.338	169.89395
598.541	172.00315
598.743	222.62986
598.946	245.8376
599.148	203.64348
599.351	237.39815
599.554	180.44012
599.756	186.76807
599.959	216.30089
600.161	256.38735
600.363	292.26001
600.566	245.8376
600.768	233.17854
600.971	264.82749
601.173	205.753
601.376	205.753
601.578	239.50798
601.78	190.9868
601.983	304.92223
602.185	247.94751
602.388	195.20561
602.59	199.42451
602.792	186.76807
602.995	315.47458
603.197	203.64348
603.399	296.48068
603.601	281.70867
603.804	281.70867
604.006	205.753
604.208	290.14971
604.41	214.19127
604.613	313.36408
604.815	300.70142
605.017	228.95901
605.219	228.95901
605.421	241.61784
605.623	254.27736
605.826	254.27736
606.028	247.94751
606.23	262.71742
606.432	212.08167
606.634	231.06877
606.836	186.76807
607.038	279.59846
607.24	262.71742
607.442	247.94751
607.644	288.03942
607.846	296.48068
608.048	228.95901
608.25	359.79929
608.452	237.39815
608.654	338.69132
608.856	338.69132
609.058	231.06877
609.26	264.82749
609.462	233.17854
609.664	226.84928
609.866	353.46672
610.067	288.03942
610.269	311.25359
610.471	247.94751
610.673	254.27736
610.875	266.93757
611.077	288.03942
611.278	205.753
611.48	334.46994
611.682	256.38735
611.884	313.36408
612.085	288.03942
612.287	315.47458
612.489	296.48068
612.69	309.14312
612.892	283.8189
613.094	304.92223
613.295	281.70867
613.497	383.02003
613.699	233.17854
613.9	317.58511
614.102	366.13202
614.304	338.69132
614.505	313.36408
614.707	304.92223
614.908	321.80621
615.11	372.4649
615.311	254.27736
615.513	353.46672
615.714	334.46994
615.916	380.90897
616.117	357.68842
616.319	393.57558
616.52	323.91679
616.722	296.48068
616.923	283.8189
617.124	228.95901
617.326	224.73956
617.527	326.02738
617.729	262.71742
617.93	374.57589
618.131	279.59846
618.333	372.4649
618.534	313.36408
618.735	330.24862
618.937	245.8376
619.138	368.24296
619.339	271.15779
619.54	414.68792
619.742	264.82749
619.943	423.13331
620.144	361.91018
620.345	323.91679
620.546	416.79924
620.748	340.80204
620.949	317.58511
621.15	290.14971
621.351	347.1343
621.552	281.70867
621.753	370.35392
621.954	374.57589
622.155	281.70867
622.356	321.80621
622.558	315.47458
622.759	408.35405
622.96	323.91679
623.161	332.35927
623.362	294.37034
623.563	332.35927
623.764	188.87742
623.965	465.36403
624.166	304.92223
624.366	288.03942
624.567	336.58062
624.768	349.24509
624.969	383.02003
625.17	391.46444
625.371	281.70867
625.572	385.13111
625.773	315.47458
625.973	380.90897
626.174	359.79929
626.375	414.68792
626.576	364.02109
626.777	342.91278
626.977	338.69132
627.178	349.24509
627.379	410.46532
627.58	423.13331
627.78	340.80204
627.981	410.46532
628.182	395.68674
628.382	442.13636
628.583	323.91679
628.784	442.13636
628.984	355.57756
629.185	440.02485
629.386	323.91679
629.586	444.24789
629.787	326.02738
629.987	391.46444
630.188	397.79792
630.388	349.24509
630.589	292.26001
630.79	442.13636
630.99	355.57756
631.191	423.13331
631.391	330.24862
631.591	423.13331
631.792	323.91679
631.992	518.16095
632.193	342.91278
632.393	509.71283
632.594	380.90897
632.794	385.13111
632.994	456.91739
633.195	518.16095
633.395	349.24509
633.595	490.7054
633.796	374.57589
633.996	478.03445
634.196	465.36403
634.397	461.14068
634.597	459.02903
634.797	516.0489
634.997	437.91335
635.198	442.13636
635.398	427.3561
635.598	577.30405
635.798	366.13202
635.998	414.68792
636.199	433.6904
636.399	416.79924
636.599	414.68792
636.799	484.36986
636.999	383.02003
637.199	450.58257
637.399	452.69416
637.599	621.66823
637.799	391.46444
637.999	431.57895
638.199	478.03445
638.399	503.37689
638.599	484.36986
638.799	598.42915
638.999	490.7054
639.199	499.153
639.399	416.79924
639.599	486.48169
639.799	459.02903
639.999	596.31658
640.199	478.03445
640.399	478.03445
640.599	442.13636
640.799	526.6093
640.998	459.02903
641.198	535.05787
641.398	511.82484
641.598	524.49719
641.798	473.81092
641.997	547.73116
642.197	608.99218
642.397	556.18028
642.597	560.40493
642.796	596.31658
642.996	465.36403
643.196	520.27302
643.395	442.13636
643.595	469.58744
643.795	490.7054
643.994	668.15088
644.194	608.99218
644.394	663.92495
644.593	541.39445
644.793	575.19162
644.992	560.40493
645.192	503.37689
645.392	543.50667
645.591	600.54173
645.791	526.6093
645.99	630.11918
646.19	604.76693
646.389	617.44283
646.589	501.26494
646.788	604.76693
646.987	575.19162
647.187	623.78095
647.386	507.60084
647.586	592.09148
647.785	566.742
647.984	454.80577
648.184	524.49719
648.383	670.26386
648.582	537.17005
648.782	617.44283
648.981	564.62963
649.18	611.10482
649.38	570.96678
649.579	670.26386
649.778	492.81728
649.977	706.18636
650.177	579.4165
650.376	592.09148
650.575	532.94571
650.774	687.16816
650.973	577.30405
651.173	644.90883
651.372	653.36032
651.571	653.36032
651.77	638.57033
651.969	771.70018
652.168	549.84342
652.367	636.45753
652.566	676.60289
652.765	790.72215
652.964	589.97895
653.163	661.812
653.362	592.09148
653.561	674.48987
653.76	672.37686
653.959	689.28125
654.158	615.33015
654.357	655.47322
654.556	634.34474
654.755	697.73371
654.954	638.57033
655.153	678.71592
655.352	668.15088
655.551	695.62058
655.749	598.42915
655.948	638.57033
656.147	503.37689
656.346	712.52596
656.545	691.39435
656.743	708.29955
656.942	687.16816
657.141	780.15429
657.34	704.07318
657.538	756.90586
657.737	674.48987
657.936	754.79243
658.135	625.89368
658.333	644.90883
658.532	792.83576
658.731	756.90586
658.929	678.71592
659.128	663.92495
659.326	676.60289
659.525	668.15088
659.724	735.77199
659.922	744.22541
660.121	691.39435
660.319	737.88533
660.518	634.34474
660.716	805.51757
660.915	625.89368
661.113	809.74492
661.312	685.05508
661.51	803.40391
661.709	720.97891
661.907	746.3388
662.105	769.58667
662.304	687.16816
662.502	655.47322
662.701	778.04075
662.899	625.89368
663.097	830.8822
663.296	725.20545
663.494	917.55413
663.692	737.88533
663.891	735.77199
664.089	735.77199
664.287	900.64146
664.485	778.04075
664.684	1014.81099
664.882	739.99868
665.08	775.92721
665.278	649.13455
665.476	794.94937
665.675	693.50746
665.873	830.8822
666.071	710.41275
666.269	803.40391
666.467	617.44283
666.665	828.76843
666.863	695.62058
667.061	871.0455
667.259	718.86566
667.457	756.90586
667.655	871.0455
667.853	921.78238
668.051	737.88533
668.249	744.22541
668.447	756.90586
668.645	763.24622
668.843	748.45219
669.041	894.29933
669.239	773.81369
669.437	839.33737
669.635	767.47318
669.833	788.60856
670.031	799.17662
670.229	820.31344
670.426	904.86958
670.624	837.22357
670.822	761.13276
671.02	845.67884
671.218	727.31874
671.415	904.86958
671.613	803.40391
671.811	877.38736
672.009	813.9723
672.206	877.38736
672.404	822.42718
672.602	885.84328
672.799	917.55413
672.997	813.9723
673.195	797.06299
673.392	864.70372
673.59	845.67884
673.788	811.8586
673.985	693.50746
674.183	845.67884
674.38	799.17662
674.578	830.8822
674.775	822.42718
674.973	940.80986
675.17	854.13426
675.368	875.2734
675.565	843.56501
675.763	854.13426
675.96	786.49498
676.158	875.2734
676.355	805.51757
676.553	822.42718
676.75	826.65467
676.947	881.6153
677.145	818.19972
677.342	892.18531
677.539	731.54534
677.737	847.79268
677.934	820.31344
678.131	957.72367
678.329	754.79243
678.526	845.67884
678.723	805.51757
678.92	847.79268
679.118	883.72929
679.315	989.43826
679.512	807.63124
679.709	881.6153
679.906	761.13276
680.104	875.2734
680.301	780.15429
680.498	862.58981
680.695	896.41337
680.892	955.60942
681.089	862.58981
681.286	877.38736
681.483	892.18531
681.68	883.72929
681.877	896.41337
682.075	845.67884
682.272	816.086
682.469	949.2667
682.665	881.6153
682.862	940.80986
683.059	769.58667
683.256	841.45119
683.453	832.99598
683.65	875.2734
683.847	735.77199
684.044	841.45119
684.241	841.45119
684.438	1088.81965
684.635	972.52362
684.831	945.03827
685.028	630.11918
685.225	849.90653
685.422	820.31344
685.619	858.36202
685.815	794.94937
686.012	881.6153
686.209	737.88533
686.405	841.45119
686.602	811.8586
686.799	841.45119
686.996	818.19972
687.192	797.06299
687.389	771.70018
687.586	919.66825
687.782	828.76843
687.979	955.60942
688.175	807.63124
688.372	938.69566
688.568	856.24813
688.765	921.78238
688.962	845.67884
689.158	906.98365
689.355	818.19972
689.551	873.15945
689.748	782.26784
689.944	835.10977
690.14	778.04075
690.337	862.58981
690.533	856.24813
690.73	801.29026
690.926	782.26784
691.123	862.58981
691.319	824.54092
691.515	909.09773
691.712	921.78238
691.908	843.56501
692.104	911.21182
692.301	951.38093
692.497	731.54534
692.693	820.31344
692.889	754.79243
693.086	921.78238
693.282	830.8822
693.478	957.72367
693.674	820.31344
693.87	957.72367
694.067	832.99598
694.263	980.98088
694.459	803.40391
694.655	1101.50751
694.851	841.45119
695.047	930.23896
695.243	951.38093
695.439	866.81764
695.635	794.94937
695.831	911.21182
696.027	773.81369
696.224	997.89573
696.42	813.9723
696.615	896.41337
696.811	809.74492
697.007	974.63792
697.203	847.79268
697.399	934.4673
697.595	896.41337
697.791	921.78238
697.987	845.67884
698.183	761.13276
698.379	862.58981
698.575	928.12481
698.77	794.94937
698.966	1052.87173
699.162	900.64146
699.358	968.29503
699.554	837.22357
699.749	887.95728
699.945	868.93157
700.141	955.60942
700.337	805.51757
700.532	934.4673
700.728	847.79268
700.924	934.4673
701.119	754.79243
701.315	879.50133
701.511	792.83576
701.706	989.43826
701.902	790.72215
702.097	921.78238
702.293	807.63124
702.489	955.60942
702.684	699.84686
702.88	932.35313
703.075	807.63124
703.271	900.64146
703.466	763.24622
703.662	1012.69656
703.857	890.07129
704.053	957.72367
704.248	835.10977
704.443	921.78238
704.639	1019.03987
704.834	947.15248
705.03	775.92721
705.225	959.83792
705.42	917.55413
705.616	898.52741
705.811	856.24813
706.006	989.43826
706.202	904.86958
706.397	936.58148
706.592	877.38736
706.787	871.0455
706.983	818.19972
707.178	1057.10082
707.373	860.47591
707.568	947.15248
707.763	883.72929
707.959	928.12481
708.154	727.31874
708.349	784.38141
708.544	832.99598
708.739	873.15945
708.934	784.38141
709.129	811.8586
709.324	811.8586
709.519	1025.38323
709.714	887.95728
709.909	866.81764
710.104	877.38736
710.299	875.2734
710.494	828.76843
710.689	923.89651
710.884	845.67884
711.079	1031.72664
711.274	813.9723
711.469	847.79268
711.664	780.15429
711.859	938.69566
712.054	803.40391
712.249	1000.01012
712.443	816.086
712.638	1065.55906
712.833	866.81764
713.028	875.2734
713.223	854.13426
713.417	983.09522
713.612	868.93157
713.807	942.92406
714.002	837.22357
714.196	864.70372
714.391	761.13276
714.586	845.67884
714.78	828.76843
714.975	955.60942
715.17	866.81764
715.364	926.01066
715.559	883.72929
715.754	832.99598
715.948	769.58667
716.143	938.69566
716.337	763.24622
716.532	887.95728
716.726	879.50133
716.921	862.58981
717.115	847.79268
717.31	913.32592
717.504	911.21182
717.699	1065.55906
717.893	837.22357
718.088	951.38093
718.282	778.04075
718.476	919.66825
718.671	790.72215
718.865	898.52741
719.059	813.9723
719.254	862.58981
719.448	744.22541
719.642	881.6153
719.837	845.67884
720.031	906.98365
720.225	828.76843
720.419	989.43826
720.614	892.18531
720.808	949.2667
721.002	839.33737
721.196	949.2667
721.39	784.38141
721.585	964.06646
721.779	917.55413
721.973	1000.01012
722.167	634.34474
722.361	828.76843
722.555	811.8586
722.749	915.44002
722.943	803.40391
723.137	947.15248
723.331	782.26784
723.525	898.52741
723.719	875.2734
723.913	938.69566
724.107	858.36202
724.301	942.92406
724.495	832.99598
724.689	873.15945
724.883	811.8586
725.077	983.09522
725.271	866.81764
725.465	875.2734
725.659	782.26784
725.853	970.40932
726.046	799.17662
726.24	845.67884
726.434	619.55552
726.628	913.32592
726.822	733.65866
727.015	904.86958
727.209	811.8586
727.403	820.31344
727.596	847.79268
727.79	1040.18461
727.984	900.64146
728.177	909.09773
728.371	830.8822
728.565	930.23896
728.758	822.42718
728.952	980.98088
729.146	862.58981
729.339	909.09773
729.533	644.90883
729.726	794.94937
729.92	807.63124
730.113	879.50133
730.307	866.81764
730.5	942.92406
730.694	877.38736
730.887	915.44002
731.081	822.42718
731.274	845.67884
731.468	813.9723
731.661	816.086
731.854	794.94937
732.048	868.93157
732.241	866.81764
732.435	921.78238
732.628	904.86958
732.821	862.58981
733.014	845.67884
733.208	1008.46772
733.401	947.15248
733.594	911.21182
733.788	904.86958
733.981	898.52741
734.174	926.01066
734.367	964.06646
734.56	909.09773
734.754	906.98365
734.947	879.50133
735.14	858.36202
735.333	949.2667
735.526	809.74492
735.719	854.13426
735.912	909.09773
736.105	858.36202
736.298	871.0455
736.491	820.31344
736.684	761.13276
736.877	837.22357
737.07	849.90653
737.263	773.81369
737.456	983.09522
737.649	930.23896
737.842	1023.26877
738.035	737.88533
738.228	828.76843
738.421	811.8586
738.614	852.02039
738.807	995.78135
739	856.24813
739.192	875.2734
739.385	898.52741
739.578	881.6153
739.771	883.72929
739.964	898.52741
740.156	976.75224
740.349	883.72929
740.542	843.56501
740.735	780.15429
740.927	873.15945
741.12	813.9723
741.313	837.22357
741.505	854.13426
741.698	879.50133
741.891	737.88533
742.083	845.67884
742.276	735.77199
742.468	822.42718
742.661	862.58981
742.854	887.95728
743.046	921.78238
743.239	794.94937
743.431	890.07129
743.624	835.10977
743.816	947.15248
744.009	887.95728
744.201	756.90586
744.393	904.86958
744.586	847.79268
744.778	980.98088
744.971	826.65467
745.163	898.52741
745.355	830.8822
745.548	900.64146
745.74	974.63792
745.932	900.64146
746.125	909.09773
746.317	862.58981
746.509	904.86958
746.702	1002.12451
746.894	890.07129
747.086	845.67884
747.278	830.8822
747.471	845.67884
747.663	845.67884
747.855	813.9723
748.047	786.49498
748.239	911.21182
748.431	837.22357
748.623	875.2734
748.815	799.17662
749.008	955.60942
749.2	849.90653
749.392	773.81369
749.584	866.81764
749.776	896.41337
749.968	794.94937
750.16	837.22357
750.352	936.58148
750.544	811.8586
750.736	742.11204
750.928	820.31344
751.12	847.79268
751.311	926.01066
751.503	887.95728
751.695	875.2734
751.887	887.95728
752.079	902.75551
752.271	767.47318
752.463	980.98088
752.654	923.89651
752.846	854.13426
753.038	921.78238
753.23	896.41337
753.421	871.0455
753.613	828.76843
753.805	879.50133
753.997	801.29026
754.188	689.28125
754.38	818.19972
754.572	816.086
754.763	854.13426
754.955	763.24622
755.146	896.41337
755.338	898.52741
755.53	849.90653
755.721	786.49498
755.913	902.75551
756.104	938.69566
756.296	873.15945
756.487	830.8822
756.679	832.99598
756.87	761.13276
757.062	739.99868
757.253	864.70372
757.445	782.26784
757.636	843.56501
757.827	830.8822
758.019	763.24622
758.21	818.19972
758.401	767.47318
758.593	915.44002
758.784	689.28125
758.975	883.72929
759.167	820.31344
759.358	858.36202
759.549	887.95728
759.74	824.54092
759.932	832.99598
760.123	763.24622
760.314	752.679
760.505	820.31344
760.696	693.50746
760.888	797.06299
761.079	803.40391
761.27	832.99598
761.461	761.13276
761.652	881.6153
761.843	672.37686
762.034	756.90586
762.225	759.0193
762.416	727.31874
762.607	611.10482
762.798	761.13276
762.989	706.18636
763.18	797.06299
763.371	685.05508
763.562	744.22541
763.753	720.97891
763.944	896.41337
764.135	763.24622
764.326	714.63918
764.517	691.39435
764.708	704.07318
764.899	659.69906
765.089	727.31874
765.28	771.70018
765.471	832.99598
765.662	723.09218
765.853	742.11204
766.043	621.66823
766.234	712.52596
766.425	668.15088
766.615	661.812
766.806	735.77199
766.997	746.3388
767.187	685.05508
767.378	687.16816
767.569	659.69906
767.759	759.0193
767.95	687.16816
768.141	769.58667
768.331	680.82896
768.522	659.69906
768.712	670.26386
768.903	710.41275
769.093	594.20402
769.284	608.99218
769.474	621.66823
769.665	735.77199
769.855	644.90883
770.046	769.58667
770.236	651.24742
770.426	594.20402
770.617	678.71592
770.807	592.09148
770.998	636.45753
771.188	611.10482
771.378	623.78095
771.569	642.79598
771.759	676.60289
771.949	763.24622
772.139	663.92495
772.33	689.28125
772.52	687.16816
772.71	655.47322
772.9	585.75393
773.09	570.96678
773.281	661.812
773.471	585.75393
773.661	761.13276
773.851	651.24742
774.041	642.79598
774.231	642.79598
774.421	634.34474
774.611	617.44283
774.802	577.30405
774.992	630.11918
775.182	560.40493
775.372	720.97891
775.562	551.95569
775.752	581.52897
775.942	549.84342
776.131	634.34474
776.321	625.89368
776.511	685.05508
776.701	585.75393
776.891	642.79598
777.081	600.54173
777.271	710.41275
777.461	659.69906
777.651	655.47322
777.84	568.85439
778.03	661.812
778.22	602.65432
778.41	596.31658
778.599	583.64144
778.789	655.47322
778.979	551.95569
779.169	587.86644
779.358	541.39445
779.548	638.57033
779.738	619.55552
779.927	710.41275
780.117	501.26494
780.307	634.34474
780.496	524.49719
780.686	592.09148
780.875	583.64144
781.065	642.79598
781.254	630.11918
781.444	625.89368
781.633	668.15088
781.823	651.24742
782.012	440.02485
782.202	499.153
782.391	653.36032
782.581	516.0489
782.77	549.84342
782.96	554.06798
783.149	568.85439
783.338	676.60289
783.528	537.17005
783.717	494.92917
783.906	598.42915
784.096	577.30405
784.285	482.25804
784.474	615.33015
784.663	494.92917
784.853	505.48886
785.042	570.96678
785.231	545.61891
785.42	497.04108
785.61	545.61891
785.799	454.80577
785.988	549.84342
786.177	516.0489
786.366	535.05787
786.555	528.72142
786.744	507.60084
786.933	560.40493
787.122	608.99218
787.312	452.69416
787.501	566.742
787.69	431.57895
787.879	522.3851
788.068	440.02485
788.257	456.91739
788.445	425.2447
788.634	545.61891
788.823	526.6093
789.012	486.48169
789.201	524.49719
789.39	440.02485
789.579	410.46532
789.768	598.42915
789.957	433.6904
790.145	511.82484
790.334	535.05787
790.523	528.72142
790.712	444.24789
790.9	501.26494
791.089	518.16095
791.278	482.25804
791.467	454.80577
791.655	499.153
791.844	482.25804
792.033	486.48169
792.221	326.02738
792.41	454.80577
792.599	459.02903
792.787	503.37689
792.976	456.91739
793.164	484.36986
793.353	442.13636
793.541	520.27302
793.73	414.68792
793.918	467.47573
794.107	355.57756
794.295	486.48169
794.484	446.35944
794.672	475.92268
794.861	414.68792
795.049	659.69906
795.238	423.13331
795.426	509.71283
795.614	473.81092
795.803	389.35331
795.991	465.36403
796.179	459.02903
796.368	418.91058
796.556	465.36403
796.744	423.13331
796.932	399.90911
797.121	334.46994
797.309	452.69416
797.497	357.68842
797.685	442.13636
797.874	423.13331
798.062	444.24789
798.25	461.14068
798.438	435.80187
798.626	391.46444
798.814	414.68792
799.002	431.57895
799.19	535.05787
799.378	473.81092
799.566	402.02032
799.755	342.91278
799.943	482.25804
800.131	427.3561
800.318	465.36403
800.506	450.58257
800.694	391.46444
800.882	374.57589
801.07	431.57895
801.258	408.35405
801.446	416.79924
801.634	385.13111
801.822	357.68842
802.01	372.4649
802.197	459.02903
802.385	431.57895
802.573	469.58744
802.761	328.13799
802.949	376.6869
803.136	330.24862
803.324	383.02003
803.512	511.82484
803.699	397.79792
803.887	385.13111
804.075	414.68792
804.262	433.6904
804.45	437.91335
804.638	399.90911
804.825	406.24279
805.013	425.2447
805.201	376.6869
805.388	364.02109
805.576	423.13331
805.763	431.57895
805.951	397.79792
806.138	389.35331
806.326	395.68674
806.513	342.91278
806.701	452.69416
806.888	404.13155
807.075	446.35944
807.263	416.79924
807.45	425.2447
807.638	427.3561
807.825	467.47573
808.012	393.57558
808.2	454.80577
808.387	465.36403
808.574	368.24296
808.761	454.80577
808.949	528.72142
809.136	425.2447
809.323	389.35331
809.51	456.91739
809.698	478.03445
809.885	475.92268
810.072	406.24279
810.259	412.57661
810.446	357.68842
810.633	465.36403
810.82	499.153
811.008	402.02032
811.195	482.25804
811.382	440.02485
811.569	435.80187
811.756	397.79792
811.943	507.60084
812.13	433.6904
812.317	469.58744
812.504	330.24862
812.691	509.71283
812.878	399.90911
813.064	541.39445
813.251	522.3851
813.438	541.39445
813.625	351.3559
813.812	475.92268
813.999	431.57895
814.186	503.37689
814.372	374.57589
814.559	448.471
814.746	372.4649
814.933	408.35405
815.12	366.13202
815.306	516.0489
815.493	334.46994
815.68	503.37689
815.866	448.471
816.053	478.03445
816.24	488.59354
816.426	410.46532
816.613	364.02109
816.799	539.28225
816.986	454.80577
817.173	450.58257
817.359	461.14068
817.546	541.39445
817.732	389.35331
817.919	414.68792
818.105	425.2447
818.292	499.153
818.478	435.80187
818.665	492.81728
818.851	486.48169
819.037	541.39445
819.224	399.90911
819.41	452.69416
819.597	448.471
819.783	366.13202
819.969	364.02109
820.156	469.58744
820.342	433.6904
820.528	518.16095
820.714	372.4649
820.901	473.81092
821.087	406.24279
821.273	520.27302
821.459	425.2447
821.646	503.37689
821.832	408.35405
822.018	551.95569
822.204	385.13111
822.39	385.13111
822.576	507.60084
822.762	511.82484
822.948	406.24279
823.134	444.24789
823.32	399.90911
823.507	357.68842
823.693	380.90897
823.879	402.02032
824.065	330.24862
824.25	456.91739
824.436	406.24279
824.622	391.46444
824.808	450.58257
824.994	364.02109
825.18	372.4649
825.366	435.80187
825.552	296.48068
825.738	433.6904
825.923	361.91018
826.109	349.24509
826.295	478.03445
826.481	467.47573
826.667	473.81092
826.852	368.24296
827.038	389.35331
827.224	437.91335
827.409	334.46994
827.595	351.3559
827.781	349.24509
827.966	393.57558
828.152	431.57895
828.338	431.57895
828.523	334.46994
828.709	311.25359
828.894	296.48068
829.08	351.3559
829.266	342.91278
829.451	414.68792
829.637	406.24279
829.822	414.68792
830.008	406.24279
830.193	418.91058
830.378	347.1343
830.564	452.69416
830.749	404.13155
830.935	389.35331
831.12	277.48826
831.305	385.13111
831.491	473.81092
831.676	321.80621
831.861	408.35405
832.047	353.46672
832.232	357.68842
832.417	380.90897
832.602	321.80621
832.788	385.13111
832.973	321.80621
833.158	380.90897
833.343	326.02738
833.528	370.35392
833.714	294.37034
833.899	380.90897
834.084	245.8376
834.269	406.24279
834.454	347.1343
834.639	347.1343
834.824	271.15779
835.009	340.80204
835.194	340.80204
835.379	397.79792
835.564	376.6869
835.749	368.24296
835.934	347.1343
836.119	389.35331
836.304	391.46444
836.489	294.37034
836.674	252.16739
836.859	372.4649
837.044	347.1343
837.228	380.90897
837.413	332.35927
837.598	402.02032
837.783	334.46994
837.968	315.47458
838.152	323.91679
838.337	271.15779
838.522	220.52019
838.707	317.58511
838.891	376.6869
839.076	233.17854
839.261	224.73956
839.445	237.39815
839.63	254.27736
839.815	364.02109
839.999	313.36408
840.184	340.80204
840.368	277.48826
840.553	250.05744
840.737	302.81182
840.922	338.69132
841.106	315.47458
841.291	285.92915
841.475	302.81182
841.66	296.48068
841.844	237.39815
842.029	275.37808
842.213	290.14971
842.397	330.24862
842.582	307.03267
842.766	372.4649
842.951	279.59846
843.135	351.3559
843.319	216.30089
843.504	313.36408
843.688	313.36408
843.872	288.03942
844.056	269.04767
844.241	340.80204
844.425	165.67563
844.609	256.38735
844.793	292.26001
844.977	326.02738
845.161	239.50798
845.346	321.80621
845.53	271.15779
845.714	332.35927
845.898	313.36408
846.082	292.26001
846.266	271.15779
846.45	271.15779
846.634	349.24509
846.818	300.70142
847.002	271.15779
847.186	220.52019
847.37	209.9721
847.554	296.48068
847.738	273.26793
847.922	245.8376
848.106	214.19127
848.29	290.14971
848.473	281.70867
848.657	245.8376
848.841	241.61784
849.025	264.82749
849.209	245.8376
849.392	323.91679
849.576	178.33085
849.76	224.73956
849.944	212.08167
850.127	279.59846
850.311	345.02353
850.495	309.14312
850.678	288.03942
850.862	389.35331
851.046	228.95901
851.229	315.47458
851.413	252.16739
851.596	328.13799
851.78	233.17854
851.964	266.93757
852.147	279.59846
852.331	250.05744
852.514	317.58511
852.698	186.76807
852.881	207.86254
853.065	290.14971
853.248	250.05744
853.431	233.17854
853.615	237.39815
853.798	235.28834
853.982	153.02117
854.165	275.37808
854.348	182.54942
854.532	271.15779
854.715	199.42451
854.898	323.91679
855.081	212.08167
855.265	233.17854
855.448	199.42451
855.631	197.31505
855.814	296.48068
855.997	201.53399
856.181	220.52019
856.364	290.14971
856.547	224.73956
856.73	224.73956
856.913	220.52019
857.096	163.5665
857.279	161.45739
857.462	142.47636
857.645	203.64348
857.828	262.71742
858.011	131.93208
858.194	245.8376
858.377	193.0962
858.56	190.9868
858.743	157.23924
858.926	195.20561
859.109	220.52019
859.292	203.64348
859.475	157.23924
859.658	153.02117
859.841	79.21886
860.023	106.62802
860.206	138.25859
860.389	264.82749
860.572	182.54942
860.755	102.41098
860.937	254.27736
861.12	190.9868
861.303	209.9721
861.486	138.25859
861.668	212.08167
861.851	161.45739
862.034	207.86254
862.216	190.9868
862.399	155.13019
862.581	203.64348
862.764	254.27736
862.947	203.64348
863.129	190.9868
863.312	195.20561
863.494	138.25859
863.677	106.62802
863.859	142.47636
864.042	161.45739
864.224	190.9868
864.406	140.36746
864.589	207.86254
864.771	144.58528
864.954	186.76807
865.136	161.45739
865.318	119.27966
865.501	188.87742
865.683	207.86254
865.865	237.39815
866.048	195.20561
866.23	117.171
866.412	142.47636
866.594	159.34831
866.777	127.71452
866.959	220.52019
867.141	186.76807
867.323	144.58528
867.505	136.14973
867.687	256.38735
867.869	136.14973
868.052	186.76807
868.234	136.14973
868.416	199.42451
868.598	190.9868
868.78	180.44012
868.962	89.7604
869.144	153.02117
869.326	237.39815
869.508	155.13019
869.69	144.58528
869.872	119.27966
870.054	104.51949
870.236	178.33085
870.417	195.20561
870.599	117.171
870.781	161.45739
870.963	239.50798
871.145	188.87742
871.327	186.76807
871.508	163.5665
871.69	161.45739
871.872	203.64348
872.054	174.11236
872.235	180.44012
872.417	112.95374
872.599	209.9721
872.78	224.73956
872.962	195.20561
873.144	203.64348
873.325	144.58528
873.507	178.33085
873.689	136.14973
873.87	125.60578
874.052	102.41098
874.233	129.82329
874.415	93.97717
874.596	140.36746
874.778	144.58528
874.959	178.33085
875.141	199.42451
875.322	163.5665
875.503	119.27966
875.685	115.06236
875.866	106.62802
876.048	155.13019
876.229	79.21886
876.41	161.45739
876.592	178.33085
876.773	169.89395
876.954	131.93208
877.136	115.06236
877.317	58.13747
877.498	273.26793
877.679	161.45739
877.86	108.73657
878.042	119.27966
878.223	136.14973
878.404	233.17854
878.585	106.62802
878.766	144.58528
878.947	115.06236
879.128	127.71452
879.309	123.49705
879.49	129.82329
879.672	93.97717
879.853	85.54372
880.034	119.27966
880.215	169.89395
880.396	108.73657
880.576	155.13019
880.757	110.84515
880.938	174.11236
881.119	106.62802
881.3	127.71452
881.481	161.45739
881.662	131.93208
881.843	163.5665
882.023	203.64348
882.204	150.91217
882.385	169.89395
882.566	127.71452
882.747	163.5665
882.927	172.00315
883.108	186.76807
883.289	186.76807
883.469	161.45739
883.65	247.94751
883.831	165.67563
884.011	178.33085
884.192	98.19403
884.373	190.9868
884.553	98.19403
884.734	148.80318
884.914	110.84515
885.095	119.27966
885.275	102.41098
885.456	165.67563
885.636	144.58528
885.817	138.25859
885.997	112.95374
886.178	224.73956
886.358	172.00315
886.538	87.65205
886.719	199.42451
886.899	125.60578
887.08	150.91217
887.26	161.45739
887.44	148.80318
887.621	178.33085
887.801	180.44012
887.981	144.58528
888.161	112.95374
888.342	70.78603
888.522	163.5665
888.702	188.87742
888.882	129.82329
889.062	144.58528
889.242	205.753
889.423	144.58528
889.603	178.33085
889.783	178.33085
889.963	155.13019
890.143	203.64348
890.323	172.00315
890.503	186.76807
890.683	197.31505
890.863	93.97717
891.043	136.14973
891.223	138.25859
891.403	93.97717
891.583	245.8376
891.763	138.25859
891.943	182.54942
892.122	119.27966
892.302	180.44012
892.482	157.23924
892.662	131.93208
892.842	72.8942
893.022	108.73657
893.201	169.89395
893.381	184.65873
893.561	212.08167
893.741	199.42451
893.92	186.76807
894.1	178.33085
894.28	161.45739
894.459	220.52019
894.639	178.33085
894.819	119.27966
894.998	127.71452
895.178	176.22159
895.357	169.89395
895.537	157.23924
895.716	129.82329
895.896	102.41098
896.075	144.58528
896.255	178.33085
896.434	157.23924
896.614	110.84515
896.793	104.51949
896.973	129.82329
897.152	144.58528
897.331	226.84928
897.511	104.51949
897.69	150.91217
897.87	125.60578
898.049	30.7351
898.228	129.82329
898.407	123.49705
898.587	195.20561
898.766	98.19403
898.945	134.0409
899.124	85.54372
899.304	155.13019
899.483	110.84515
899.662	119.27966
899.841	140.36746
900.02	115.06236
900.199	110.84515
900.378	144.58528
900.557	98.19403
900.737	104.51949
900.916	201.53399
901.095	93.97717
901.274	169.89395
901.453	98.19403
901.632	68.67788
901.811	138.25859
901.989	222.62986
902.168	70.78603
902.347	153.02117
902.526	121.38835
902.705	188.87742
902.884	115.06236
903.063	123.49705
903.242	121.38835
903.42	117.171
903.599	127.71452
903.778	87.65205
903.957	157.23924
904.135	136.14973
904.314	136.14973
904.493	104.51949
904.672	144.58528
904.85	161.45739
905.029	121.38835
905.207	85.54372
905.386	102.41098
905.565	87.65205
905.743	75.0024
905.922	144.58528
906.1	106.62802
906.279	87.65205
906.457	115.06236
906.636	91.86877
906.814	106.62802
906.993	20.19678
907.171	110.84515
907.35	51.8135
907.528	96.08559
907.707	87.65205
907.885	81.32712
908.063	58.13747
908.242	110.84515
908.42	7.55158
908.598	131.93208
908.777	102.41098
908.955	72.8942
909.133	-15.62904
909.311	34.9506
909.49	134.0409
909.668	20.19678
909.846	47.59764
910.024	77.11062
910.202	110.84515
910.38	129.82329
910.559	11.76656
910.737	79.21886
910.915	-28.27177
911.093	136.14973
911.271	-7.20006
911.449	172.00315
911.627	102.41098
911.805	79.21886
911.983	68.67788
912.161	43.38186
912.339	110.84515
912.517	34.9506
912.695	62.35357
912.872	119.27966
913.05	43.38186
913.228	28.62739
913.406	155.13019
913.584	26.51971
913.762	87.65205
913.939	146.69422
914.117	102.41098
914.295	89.7604
914.473	51.8135
914.65	157.23924
914.828	77.11062
915.006	83.43541
915.184	87.65205
915.361	64.46165
915.539	1.22931
915.716	58.13747
915.894	62.35357
916.072	85.54372
916.249	77.11062
916.427	231.06877
916.604	68.67788
916.782	115.06236
916.959	30.7351
917.137	9.65906
917.314	93.97717
917.492	77.11062
917.669	121.38835
917.847	77.11062
918.024	24.41204
918.201	22.3044
918.379	89.7604
918.556	127.71452
918.733	136.14973
918.911	104.51949
919.088	18.08919
919.265	119.27966
919.442	85.54372
919.62	131.93208
919.797	60.24551
919.974	79.21886
920.151	47.59764
920.328	102.41098
920.506	110.84515
920.683	45.48974
920.86	39.16618
921.037	96.08559
921.214	89.7604
921.391	93.97717
921.568	96.08559
921.745	-11.4146
921.922	77.11062
922.099	134.0409
922.276	104.51949
922.453	104.51949
922.63	1.22931
922.807	110.84515
922.984	45.48974
923.161	43.38186
923.338	53.92147
923.514	102.41098
923.691	106.62802
923.868	121.38835
924.045	68.67788
924.222	-15.62904
924.399	96.08559
924.575	39.16618
924.752	89.7604
924.929	87.65205
925.105	18.08919
925.282	77.11062
925.459	62.35357
925.635	51.8135
925.812	93.97717
925.989	110.84515
926.165	89.7604
926.342	39.16618
926.518	24.41204
926.695	56.02946
926.871	110.84515
927.048	43.38186
927.224	89.7604
927.401	47.59764
927.577	62.35357
927.754	72.8942
927.93	77.11062
928.107	79.21886
928.283	26.51971
928.459	70.78603
928.636	91.86877
928.812	41.27401
928.988	72.8942
929.165	87.65205
929.341	56.02946
929.517	43.38186
929.693	98.19403
929.87	85.54372
930.046	43.38186
930.222	49.70556
930.398	77.11062
930.574	178.33085
930.751	37.05838
930.927	75.0024
931.103	47.59764
931.279	43.38186
931.455	26.51971
931.631	45.48974
931.807	26.51971
931.983	79.21886
932.159	102.41098
932.335	72.8942
932.511	47.59764
932.687	-7.20006
932.863	34.9506
933.039	28.62739
933.215	83.43541
933.391	39.16618
933.566	77.11062
933.742	60.24551
933.918	-15.62904
934.094	11.76656
934.27	11.76656
934.445	56.02946
934.621	43.38186
934.797	81.32712
934.973	24.41204
935.148	51.8135
935.324	9.65906
935.5	56.02946
935.675	41.27401
935.851	60.24551
936.027	49.70556
936.202	64.46165
936.378	39.16618
936.553	51.8135
936.729	60.24551
936.904	9.65906
937.08	64.46165
937.255	70.78603
937.431	26.51971
937.606	-5.09275
937.782	83.43541
937.957	45.48974
938.133	37.05838
938.308	72.8942
938.483	34.9506
938.659	34.9506
938.834	1.22931
939.009	18.08919
939.185	60.24551
939.36	-5.09275
939.535	26.51971
939.71	53.92147
939.886	-17.73622
940.061	20.19678
940.236	30.7351
940.411	28.62739
940.586	-32.48582
940.761	-57.768
940.937	7.55158
941.112	62.35357
941.287	68.67788
941.462	81.32712
941.637	9.65906
941.812	64.46165
941.987	13.87408
942.162	1.22931
942.337	-17.73622
942.512	43.38186
942.687	1.22931
942.862	26.51971
943.037	104.51949
943.212	62.35357
943.386	60.24551
943.561	-28.27177
943.736	13.87408
943.911	91.86877
944.086	-24.05762
944.26	60.24551
944.435	-13.52183
944.61	77.11062
944.785	18.08919
944.959	100.3025
945.134	93.97717
945.309	34.9506
945.483	24.41204
945.658	18.08919
945.833	47.59764
946.007	9.65906
946.182	56.02946
946.357	30.7351
946.531	18.08919
946.706	39.16618
946.88	43.38186
947.055	-13.52183
947.229	77.11062
947.404	39.16618
947.578	47.59764
947.752	30.7351
947.927	56.02946
948.101	121.38835
948.276	-7.20006
948.45	13.87408
948.624	37.05838
948.799	22.3044
948.973	68.67788
949.147	30.7351
949.321	32.84284
949.496	3.33671
949.67	20.19678
949.844	18.08919
950.018	34.9506
950.193	39.16618
950.367	3.33671
950.541	30.7351
950.715	49.70556
950.889	51.8135
951.063	47.59764
951.237	-21.95051
951.411	13.87408
951.585	60.24551
951.759	51.8135
951.933	47.59764
952.107	34.9506
952.281	1.22931
952.455	9.65906
952.629	20.19678
952.803	53.92147
952.977	28.62739
953.151	7.55158
953.325	9.65906
953.499	62.35357
953.672	45.48974
953.846	15.98162
954.02	37.05838
954.194	-57.768
954.368	34.9506
954.541	43.38186
954.715	3.33671
954.889	-2.98542
955.062	43.38186
955.236	20.19678
955.41	30.7351
955.583	26.51971
955.757	64.46165
955.93	18.08919
956.104	-28.27177
956.278	5.44413
956.451	-30.3788
956.625	45.48974
956.798	28.62739
956.972	81.32712
957.145	-40.91361
957.319	43.38186
957.492	93.97717
957.665	13.87408
957.839	34.9506
958.012	108.73657
958.185	39.16618
958.359	-21.95051
958.532	39.16618
958.705	1.22931
958.879	87.65205
959.052	-13.52183
959.225	79.21886
959.398	-0.87807
959.572	30.7351
959.745	9.65906
959.918	85.54372
960.091	30.7351
960.264	3.33671
960.438	30.7351
960.611	7.55158
960.784	70.78603
960.957	51.8135
961.13	18.08919
961.303	-34.5928
961.476	-40.91361
961.649	18.08919
961.822	51.8135
961.995	60.24551
962.168	-2.98542
962.341	3.33671
962.514	34.9506
962.686	79.21886
962.859	26.51971
963.032	13.87408
963.205	-34.5928
963.378	9.65906
963.551	1.22931
963.723	79.21886
963.896	43.38186
964.069	3.33671
964.242	28.62739
964.414	77.11062
964.587	-15.62904
964.76	51.8135
964.932	43.38186
965.105	45.48974
965.278	1.22931
965.45	51.8135
965.623	-47.2342
965.795	68.67788
965.968	1.22931
966.14	26.51971
966.313	-11.4146
966.485	1.22931
966.658	-40.91361
966.83	9.65906
967.003	43.38186
967.175	51.8135
967.348	102.41098
967.52	22.3044
967.692	41.27401
967.865	20.19678
968.037	28.62739
968.209	34.9506
968.382	51.8135
968.554	-15.62904
968.726	-11.4146
968.898	51.8135
969.071	-2.98542
969.243	5.44413
969.415	13.87408
969.587	77.11062
969.759	28.62739
969.932	-21.95051
970.104	-5.09275
970.276	45.48974
970.448	1.22931
970.62	9.65906
970.792	26.51971
970.964	43.38186
971.136	34.9506
971.308	37.05838
971.48	37.05838
971.652	11.76656
971.824	93.97717
971.996	7.55158
972.168	56.02946
972.339	87.65205
972.511	9.65906
972.683	18.08919
972.855	28.62739
973.027	77.11062
973.199	-36.69976
973.37	5.44413
973.542	-24.05762
973.714	68.67788
973.886	81.32712
974.057	30.7351
974.229	64.46165
974.401	-40.91361
974.572	-51.44779
974.744	20.19678
974.915	56.02946
975.087	45.48974
975.259	15.98162
975.43	11.76656
975.602	96.08559
975.773	102.41098
975.945	47.59764
976.116	-19.84338
976.288	30.7351
976.459	47.59764
976.63	11.76656
976.802	60.24551
976.973	77.11062
977.145	56.02946
977.316	-28.27177
977.487	-13.52183
977.659	64.46165
977.83	53.92147
978.001	32.84284
978.172	18.08919
978.344	-19.84338
978.515	-13.52183
978.686	1.22931
978.857	43.38186
979.028	41.27401
979.2	20.19678
979.371	60.24551
979.542	1.22931
979.713	1.22931
979.884	70.78603
980.055	47.59764
980.226	-2.98542
980.397	72.8942
980.568	13.87408
980.739	136.14973
980.91	26.51971
981.081	43.38186
981.252	11.76656
981.423	34.9506
981.594	1.22931
981.765	34.9506
981.936	5.44413
982.106	5.44413
982.277	3.33671
982.448	20.19678
982.619	11.76656
982.79	26.51971
982.96	-5.09275
983.131	7.55158
983.302	-15.62904
983.472	-2.98542
983.643	68.67788
983.814	-32.48582
983.984	30.7351
984.155	22.3044
984.326	51.8135
984.496	98.19403
984.667	28.62739
984.837	-13.52183
985.008	75.0024
985.178	26.51971
985.349	62.35357
985.519	43.38186
985.69	39.16618
985.86	34.9506
986.031	11.76656
986.201	68.67788
986.371	26.51971
986.542	1.22931
986.712	43.38186
986.882	77.11062
987.053	22.3044
987.223	1.22931
987.393	-13.52183
987.563	-40.91361
987.734	-24.05762
987.904	106.62802
988.074	51.8135
988.244	24.41204
988.414	1.22931
988.585	70.78603
988.755	34.9506
988.925	-28.27177
989.095	58.13747
989.265	136.14973
989.435	-51.44779
989.605	85.54372
989.775	28.62739
989.945	-11.4146
990.115	41.27401
990.285	34.9506
990.455	26.51971
990.625	-15.62904
990.795	66.56975
990.965	41.27401
991.134	-21.95051
991.304	26.51971
991.474	-108.32136
991.644	45.48974
991.814	34.9506
991.984	-40.91361
992.153	75.0024
992.323	77.11062
992.493	58.13747
992.662	15.98162
992.832	-53.55456
993.002	11.76656
993.171	70.78603
993.341	39.16618
993.511	49.70556
993.68	-5.09275
993.85	53.92147
994.019	58.13747
994.189	28.62739
994.358	30.7351
994.528	11.76656
994.697	-5.09275
994.867	7.55158
995.036	30.7351
995.206	32.84284
995.375	-9.30734
995.544	60.24551
995.714	22.3044
995.883	-2.98542
996.052	45.48974
996.222	26.51971
996.391	30.7351
996.56	-2.98542
996.73	45.48974
996.899	11.76656
997.068	51.8135
997.237	-11.4146
997.406	-13.52183
997.576	102.41098
997.745	1.22931
997.914	51.8135
998.083	43.38186
998.252	85.54372
998.421	-2.98542
998.59	1.22931
998.759	37.05838
998.928	85.54372
999.097	-9.30734
999.266	77.11062
999.435	22.3044
999.604	37.05838
999.773	30.7351
999.942	43.38186
1000.111	-53.55456
1000.28	93.97717
1000.448	47.59764
1000.617	9.65906
1000.786	-21.95051
1000.955	37.05838
1001.124	85.54372
1001.292	-34.5928
1001.461	9.65906
1001.63	77.11062
1001.798	39.16618
1001.967	26.51971
1002.136	81.32712
1002.304	34.9506
1002.473	34.9506
1002.642	-13.52183
1002.81	56.02946
1002.979	47.59764
1003.147	-28.27177
1003.316	39.16618
1003.484	30.7351
1003.653	-0.87807
1003.821	-0.87807
1003.99	77.11062
1004.158	72.8942
1004.327	18.08919
1004.495	51.8135
1004.663	-5.09275
1004.832	53.92147
1005	64.46165
1005.168	-53.55456
1005.337	68.67788
1005.505	68.67788
1005.673	70.78603
1005.842	68.67788
1006.01	45.48974
1006.178	68.67788
1006.346	-47.2342
1006.514	34.9506
1006.683	-11.4146
1006.851	56.02946
1007.019	-36.69976
1007.187	37.05838
1007.355	-24.05762
1007.523	1.22931
1007.691	85.54372
1007.859	-13.52183
1008.027	18.08919
1008.195	-11.4146
1008.363	13.87408
1008.531	39.16618
1008.699	112.95374
1008.867	39.16618
1009.035	-7.20006
1009.203	-9.30734
1009.37	13.87408
1009.538	83.43541
1009.706	18.08919
1009.874	-11.4146
1010.042	51.8135
1010.209	26.51971
1010.377	56.02946
1010.545	9.65906
1010.713	39.16618
1010.88	45.48974
1011.048	-32.48582
1011.216	-7.20006
1011.383	26.51971
1011.551	9.65906
1011.718	85.54372
1011.886	41.27401
1012.054	-72.51427
1012.221	28.62739
1012.389	1.22931
1012.556	47.59764
1012.724	-0.87807
1012.891	66.56975
1013.058	87.65205
1013.226	43.38186
1013.393	-28.27177
1013.561	-2.98542
1013.728	77.11062
1013.895	26.51971
1014.063	3.33671
1014.23	-38.8067
1014.397	81.32712
1014.565	58.13747
1014.732	87.65205
1014.899	20.19678
1015.066	96.08559
1015.233	-49.34101
1015.401	56.02946
1015.568	32.84284
1015.735	60.24551
1015.902	30.7351
1016.069	18.08919
1016.236	-53.55456
1016.403	18.08919
1016.57	-19.84338
1016.737	26.51971
1016.904	45.48974
1017.071	93.97717
1017.238	5.44413
1017.405	51.8135
1017.572	9.65906
1017.739	43.38186
1017.906	37.05838
1018.073	26.51971
1018.24	9.65906
1018.407	49.70556
1018.573	-24.05762
1018.74	-38.8067
1018.907	-7.20006
1019.074	81.32712
1019.241	43.38186
1019.407	18.08919
1019.574	30.7351
1019.741	85.54372
1019.907	-53.55456
1020.074	60.24551
1020.241	11.76656
1020.407	-9.30734
1020.574	-19.84338
1020.74	39.16618
1020.907	3.33671
1021.073	-24.05762
1021.24	5.44413
1021.406	30.7351
1021.573	-43.0205
1021.739	49.70556
1021.906	60.24551
1022.072	7.55158
1022.239	43.38186
1022.405	30.7351
1022.571	11.76656
1022.738	-7.20006
1022.904	-24.05762
1023.07	11.76656
1023.237	9.65906
1023.403	45.48974
1023.569	-9.30734
1023.735	-2.98542
1023.902	93.97717
1024.068	43.38186
1024.234	9.65906
1024.4	49.70556
1024.566	77.11062
1024.732	30.7351
1024.898	75.0024
1025.065	-55.66129
1025.231	-9.30734
1025.397	30.7351
1025.563	-2.98542
1025.729	-49.34101
1025.895	47.59764
1026.061	-24.05762
1026.227	-11.4146
1026.392	11.76656
1026.558	-7.20006
1026.724	34.9506
1026.89	-15.62904
1027.056	117.171
1027.222	-5.09275
1027.388	119.27966
1027.553	-49.34101
1027.719	119.27966
1027.885	68.67788
1028.051	1.22931
1028.216	-5.09275
1028.382	47.59764
1028.548	22.3044
1028.713	41.27401
1028.879	-15.62904
1029.045	62.35357
1029.21	34.9506
1029.376	5.44413
1029.541	-2.98542
1029.707	20.19678
1029.873	-9.30734
1030.038	60.24551
1030.204	85.54372
1030.369	18.08919
1030.534	-40.91361
1030.7	43.38186
1030.865	-21.95051
1031.031	87.65205
1031.196	24.41204
1031.361	45.48974
1031.527	1.22931
1031.692	-7.20006
1031.857	-21.95051
1032.023	-21.95051
1032.188	-24.05762
1032.353	30.7351
1032.518	18.08919
1032.684	5.44413
1032.849	-7.20006
1033.014	9.65906
1033.179	11.76656
1033.344	1.22931
1033.509	34.9506
1033.674	30.7351
1033.839	60.24551
1034.004	1.22931
1034.17	18.08919
1034.335	85.54372
1034.5	68.67788
1034.664	1.22931
1034.829	43.38186
1034.994	3.33671
1035.159	51.8135
1035.324	47.59764
1035.489	22.3044
1035.654	32.84284
1035.819	37.05838
1035.984	-21.95051
1036.148	47.59764
1036.313	11.76656
1036.478	30.7351
1036.643	18.08919
1036.807	-24.05762
1036.972	51.8135
1037.137	26.51971
1037.301	-7.20006
1037.466	39.16618
1037.631	32.84284
1037.795	-28.27177
1037.96	26.51971
1038.124	-5.09275
1038.289	-70.40773
1038.454	28.62739
1038.618	-36.69976
1038.783	-30.3788
1038.947	9.65906
1039.111	13.87408
1039.276	9.65906
1039.44	-40.91361
1039.605	32.84284
1039.769	22.3044
1039.933	39.16618
1040.098	72.8942
1040.262	53.92147
1040.426	32.84284
1040.591	51.8135
1040.755	-11.4146
1040.919	-19.84338
1041.083	-32.48582
1041.248	47.59764
1041.412	7.55158
1041.576	3.33671
1041.74	-59.87469
1041.904	70.78603
1042.068	18.08919
1042.232	1.22931
1042.397	13.87408
1042.561	3.33671
1042.725	7.55158
1042.889	24.41204
1043.053	60.24551
1043.217	-7.20006
1043.381	39.16618
1043.544	1.22931
1043.708	37.05838
1043.872	-40.91361
1044.036	9.65906
1044.2	-2.98542
1044.364	-78.83371
1044.528	-24.05762
1044.691	-40.91361
1044.855	43.38186
1045.019	-21.95051
1045.183	43.38186
1045.346	45.48974
1045.51	39.16618
1045.674	43.38186
1045.837	28.62739
1046.001	28.62739
1046.165	51.8135
1046.328	9.65906
1046.492	-36.69976
1046.655	3.33671
1046.819	102.41098
1046.983	51.8135
1047.146	77.11062
1047.31	-34.5928
1047.473	43.38186
1047.636	11.76656
1047.8	1.22931
1047.963	-7.20006
1048.127	-0.87807
1048.29	-7.20006
