Data from mixed_try6.1_USB4F045381__8__00292.txt Node

Date: Thu Apr 03 20:31:47 EDT 2025
User: mmckonesweet
Spectrometer: USB4F04538
Trigger mode: 4
Integration Time (sec): 2.700000E-3
Scans to average: 1
Electric dark correction enabled: true
Nonlinearity correction enabled: true
Boxcar width: 0
XAxis mode: Wavelengths
Number of Pixels in Spectrum: 3648
>>>>>Begin Spectral Data<<<<<
345.52	41.62532
345.736	41.62532
345.952	41.62532
346.168	18.44046
346.384	54.2728
346.6	16.33288
346.816	1.58054
347.032	3.68794
347.248	45.84105
347.464	-32.13465
347.68	26.87099
347.896	22.65567
348.112	-38.45555
348.328	-40.56246
348.544	-21.59933
348.76	37.40968
348.975	-21.59933
349.191	-38.45555
349.407	3.68794
349.623	-0.52684
349.839	41.62532
350.055	7.90283
350.27	-21.59933
350.486	-38.45555
350.702	41.62532
350.918	-38.45555
351.133	-34.24164
351.349	3.68794
351.565	10.01031
351.781	-32.13465
351.996	77.46199
352.212	14.22533
352.428	52.16483
352.644	-34.24164
352.859	16.33288
353.075	-21.59933
353.291	-8.95613
353.506	12.11781
353.722	1.58054
353.938	10.01031
354.153	10.01031
354.369	50.05688
354.584	12.11781
354.8	35.30189
355.016	-21.59933
355.231	47.94895
355.447	35.30189
355.662	-21.59933
355.878	22.65567
356.093	-34.24164
356.309	-55.31017
356.524	-8.95613
356.74	1.58054
356.955	-21.59933
357.171	41.62532
357.386	-42.66935
357.602	-0.52684
357.817	45.84105
358.033	88.00344
358.248	16.33288
358.464	-65.84349
358.679	10.01031
358.895	1.58054
359.11	-8.95613
359.325	16.33288
359.541	-15.27784
359.756	-25.81353
359.972	-40.56246
360.187	24.76332
360.402	-21.59933
360.618	83.78679
360.833	12.11781
361.048	-8.95613
361.264	7.90283
361.479	-38.45555
361.694	-21.59933
361.909	7.90283
362.125	-63.73688
362.34	-6.84884
362.555	-17.38502
362.77	-42.66935
362.986	45.84105
363.201	-40.56246
363.416	-21.59933
363.631	37.40968
363.847	3.68794
364.062	-65.84349
364.277	-4.74153
364.492	-48.98987
364.707	7.90283
364.922	-38.45555
365.138	16.33288
365.353	-63.73688
365.568	-34.24164
365.783	-32.13465
365.998	-0.52684
366.213	7.90283
366.428	7.90283
366.643	58.48881
366.858	37.40968
367.073	-17.38502
367.288	-15.27784
367.503	-30.02763
367.718	-8.95613
367.933	-15.27784
368.148	-0.52684
368.363	-48.98987
368.578	-63.73688
368.793	20.54805
369.008	-55.31017
369.223	-13.17063
369.438	24.76332
369.653	-6.84884
369.868	-30.02763
370.083	43.73317
370.298	14.22533
370.513	-25.81353
370.728	1.58054
370.943	5.79537
371.157	28.97868
371.372	7.90283
371.587	39.51749
371.802	24.76332
372.017	26.87099
372.232	41.62532
372.446	12.11781
372.661	-0.52684
372.876	75.35377
373.091	33.19413
373.306	33.19413
373.52	-0.52684
373.735	-34.24164
373.95	37.40968
374.165	-0.52684
374.379	3.68794
374.594	-4.74153
374.809	18.44046
375.023	-34.24164
375.238	-15.27784
375.453	-53.20343
375.667	35.30189
375.882	-63.73688
376.097	24.76332
376.311	-38.45555
376.526	35.30189
376.741	37.40968
376.955	7.90283
377.17	92.22017
377.384	10.01031
377.599	-59.52357
377.813	18.44046
378.028	28.97868
378.242	3.68794
378.457	-48.98987
378.672	12.11781
378.886	-48.98987
379.101	-13.17063
379.315	-27.92059
379.53	22.65567
379.744	-36.3486
379.958	16.33288
380.173	41.62532
380.387	54.2728
380.602	-17.38502
380.816	26.87099
381.031	28.97868
381.245	-21.59933
381.459	10.01031
381.674	-17.38502
381.888	7.90283
382.103	52.16483
382.317	1.58054
382.531	-0.52684
382.746	7.90283
382.96	92.22017
383.174	7.90283
383.388	22.65567
383.603	43.73317
383.817	-17.38502
384.031	18.44046
384.246	41.62532
384.46	3.68794
384.674	-27.92059
384.888	-0.52684
385.103	-17.38502
385.317	-38.45555
385.531	-6.84884
385.745	-0.52684
385.959	58.48881
386.174	7.90283
386.388	-38.45555
386.602	28.97868
386.816	41.62532
387.03	-0.52684
387.244	-17.38502
387.458	-17.38502
387.672	-4.74153
387.887	10.01031
388.101	-0.52684
388.315	12.11781
388.529	35.30189
388.743	-25.81353
388.957	-38.45555
389.171	-2.6342
389.385	-0.52684
389.599	-30.02763
389.813	3.68794
390.027	24.76332
390.241	18.44046
390.455	26.87099
390.669	-42.66935
390.883	45.84105
391.097	33.19413
391.311	66.92111
391.525	20.54805
391.738	-6.84884
391.952	-84.80186
392.166	41.62532
392.38	-38.45555
392.594	24.76332
392.808	-0.52684
393.022	7.90283
393.236	-63.73688
393.449	12.11781
393.663	1.58054
393.877	-36.3486
394.091	-34.24164
394.305	33.19413
394.518	71.13739
394.732	28.97868
394.946	7.90283
395.16	50.05688
395.373	3.68794
395.587	-25.81353
395.801	-13.17063
396.015	-59.52357
396.228	50.05688
396.442	41.62532
396.656	1.58054
396.869	18.44046
397.083	-40.56246
397.297	16.33288
397.51	7.90283
397.724	12.11781
397.938	26.87099
398.151	-4.74153
398.365	18.44046
398.578	-61.63024
398.792	60.59685
399.005	-27.92059
399.219	75.35377
399.433	77.46199
399.646	-25.81353
399.86	-34.24164
400.073	31.08639
400.287	-17.38502
400.5	-4.74153
400.714	-8.95613
400.927	-25.81353
401.141	-67.95008
401.354	58.48881
401.567	-13.17063
401.781	-15.27784
401.994	-67.95008
402.208	20.54805
402.421	-57.41689
402.635	7.90283
402.848	66.92111
403.061	-42.66935
403.275	100.65391
403.488	43.73317
403.701	-6.84884
403.915	35.30189
404.128	-53.20343
404.341	1.58054
404.555	16.33288
404.768	24.76332
404.981	10.01031
405.195	-2.6342
405.408	66.92111
405.621	-17.38502
405.834	81.6785
406.048	-40.56246
406.261	52.16483
406.474	43.73317
406.687	-23.70644
406.9	58.48881
407.114	24.76332
407.327	-97.43961
407.54	33.19413
407.753	-30.02763
407.966	-51.09666
408.179	10.01031
408.392	-42.66935
408.605	77.46199
408.819	90.11179
409.032	43.73317
409.245	-25.81353
409.458	-11.06339
409.671	18.44046
409.884	28.97868
410.097	20.54805
410.31	28.97868
410.523	-23.70644
410.736	-23.70644
410.949	50.05688
411.162	33.19413
411.375	-19.49219
411.588	1.58054
411.801	-21.59933
412.014	-15.27784
412.227	12.11781
412.44	12.11781
412.653	-36.3486
412.865	-11.06339
413.078	-8.95613
413.291	12.11781
413.504	18.44046
413.717	83.78679
413.93	-36.3486
414.143	-0.52684
414.356	20.54805
414.568	-0.52684
414.781	66.92111
414.994	10.01031
415.207	-25.81353
415.42	-15.27784
415.632	41.62532
415.845	-61.63024
416.058	-34.24164
416.271	-32.13465
416.483	-6.84884
416.696	41.62532
416.909	10.01031
417.121	35.30189
417.334	35.30189
417.547	33.19413
417.759	12.11781
417.972	-34.24164
418.185	7.90283
418.397	-40.56246
418.61	50.05688
418.823	18.44046
419.035	-17.38502
419.248	-38.45555
419.46	24.76332
419.673	58.48881
419.885	-0.52684
420.098	-34.24164
420.311	75.35377
420.523	-4.74153
420.736	-51.09666
420.948	102.7624
421.161	79.57023
421.373	-8.95613
421.586	-38.45555
421.798	-11.06339
422.01	41.62532
422.223	35.30189
422.435	10.01031
422.648	75.35377
422.86	33.19413
423.073	-34.24164
423.285	-34.24164
423.497	-23.70644
423.71	-17.38502
423.922	77.46199
424.134	37.40968
424.347	24.76332
424.559	3.68794
424.771	-4.74153
424.984	-8.95613
425.196	1.58054
425.408	102.7624
425.621	-36.3486
425.833	33.19413
426.045	-30.02763
426.257	-17.38502
426.47	14.22533
426.682	18.44046
426.894	5.79537
427.106	58.48881
427.318	12.11781
427.531	-4.74153
427.743	-46.88306
427.955	-42.66935
428.167	-55.31017
428.379	-40.56246
428.591	-19.49219
428.804	12.11781
429.016	7.90283
429.228	22.65567
429.44	69.02924
429.652	-44.77622
429.864	-6.84884
430.076	-32.13465
430.288	16.33288
430.5	109.088
430.712	-15.27784
430.924	-8.95613
431.136	-17.38502
431.348	16.33288
431.56	-76.37618
431.772	-6.84884
431.984	-76.37618
432.196	-55.31017
432.408	7.90283
432.62	-8.95613
432.832	-15.27784
433.044	-53.20343
433.256	60.59685
433.468	24.76332
433.679	35.30189
433.891	-6.84884
434.103	-19.49219
434.315	41.62532
434.527	43.73317
434.739	-34.24164
434.95	18.44046
435.162	-34.24164
435.374	-23.70644
435.586	-82.69548
435.798	43.73317
436.009	-32.13465
436.221	-55.31017
436.433	7.90283
436.645	12.11781
436.856	28.97868
437.068	-0.52684
437.28	24.76332
437.491	-27.92059
437.703	24.76332
437.915	-36.3486
438.126	-40.56246
438.338	-25.81353
438.55	24.76332
438.761	7.90283
438.973	-76.37618
439.184	-19.49219
439.396	7.90283
439.608	-0.52684
439.819	28.97868
440.031	-34.24164
440.242	7.90283
440.454	-8.95613
440.665	-17.38502
440.877	12.11781
441.088	7.90283
441.3	-38.45555
441.511	26.87099
441.723	-42.66935
441.934	35.30189
442.146	-23.70644
442.357	35.30189
442.569	-0.52684
442.78	43.73317
442.991	7.90283
443.203	-4.74153
443.414	92.22017
443.626	-32.13465
443.837	50.05688
444.048	1.58054
444.26	16.33288
444.471	18.44046
444.682	37.40968
444.894	-25.81353
445.105	-15.27784
445.316	5.79537
445.528	-2.6342
445.739	10.01031
445.95	28.97868
446.161	12.11781
446.373	-34.24164
446.584	-27.92059
446.795	50.05688
447.006	92.22017
447.217	-51.09666
447.429	-11.06339
447.64	-40.56246
447.851	60.59685
448.062	58.48881
448.273	-42.66935
448.484	24.76332
448.695	3.68794
448.907	-0.52684
449.118	-34.24164
449.329	-27.92059
449.54	10.01031
449.751	58.48881
449.962	7.90283
450.173	39.51749
450.384	3.68794
450.595	-42.66935
450.806	43.73317
451.017	50.05688
451.228	-8.95613
451.439	3.68794
451.65	26.87099
451.861	-21.59933
452.072	-15.27784
452.283	28.97868
452.494	-42.66935
452.705	58.48881
452.915	-0.52684
453.126	-15.27784
453.337	5.79537
453.548	50.05688
453.759	10.01031
453.97	-21.59933
454.181	-8.95613
454.391	-0.52684
454.602	-6.84884
454.813	-34.24164
455.024	-76.37618
455.235	3.68794
455.445	39.51749
455.656	-8.95613
455.867	-32.13465
456.078	-25.81353
456.288	22.65567
456.499	50.05688
456.71	-84.80186
456.921	-51.09666
457.131	-8.95613
457.342	-46.88306
457.553	-0.52684
457.763	-32.13465
457.974	-0.52684
458.184	35.30189
458.395	47.94895
458.606	81.6785
458.816	26.87099
459.027	-17.38502
459.237	14.22533
459.448	-25.81353
459.659	16.33288
459.869	-40.56246
460.08	12.11781
460.29	22.65567
460.501	16.33288
460.711	7.90283
460.922	1.58054
461.132	41.62532
461.343	37.40968
461.553	7.90283
461.764	43.73317
461.974	28.97868
462.184	16.33288
462.395	28.97868
462.605	12.11781
462.816	1.58054
463.026	-4.74153
463.236	75.35377
463.447	10.01031
463.657	18.44046
463.867	3.68794
464.078	26.87099
464.288	5.79537
464.498	26.87099
464.709	-25.81353
464.919	26.87099
465.129	-13.17063
465.339	-55.31017
465.55	12.11781
465.76	58.48881
465.97	-0.52684
466.18	-0.52684
466.391	43.73317
466.601	33.19413
466.811	12.11781
467.021	-32.13465
467.231	109.088
467.441	7.90283
467.651	47.94895
467.862	-25.81353
468.072	50.05688
468.282	12.11781
468.492	56.38079
468.702	33.19413
468.912	24.76332
469.122	-6.84884
469.332	-8.95613
469.542	-25.81353
469.752	-21.59933
469.962	18.44046
470.172	-4.74153
470.382	1.58054
470.592	24.76332
470.802	66.92111
471.012	43.73317
471.222	16.33288
471.432	58.48881
471.642	-15.27784
471.852	-42.66935
472.062	31.08639
472.272	10.01031
472.482	-25.81353
472.691	37.40968
472.901	43.73317
473.111	7.90283
473.321	5.79537
473.531	-15.27784
473.741	-2.6342
473.95	18.44046
474.16	-6.84884
474.37	-32.13465
474.58	75.35377
474.79	52.16483
474.999	60.59685
475.209	104.87091
475.419	-55.31017
475.628	-30.02763
475.838	-19.49219
476.048	-32.13465
476.258	-8.95613
476.467	-8.95613
476.677	-25.81353
476.886	12.11781
477.096	-6.84884
477.306	-0.52684
477.515	-34.24164
477.725	41.62532
477.935	85.8951
478.144	39.51749
478.354	1.58054
478.563	47.94895
478.773	54.2728
478.982	-72.16318
479.192	16.33288
479.401	43.73317
479.611	1.58054
479.82	18.44046
480.03	-34.24164
480.239	5.79537
480.449	41.62532
480.658	-13.17063
480.868	-34.24164
481.077	-17.38502
481.287	83.78679
481.496	58.48881
481.705	106.97945
481.915	-6.84884
482.124	-13.17063
482.333	-4.74153
482.543	35.30189
482.752	-65.84349
482.961	54.2728
483.171	-51.09666
483.38	-4.74153
483.589	35.30189
483.799	37.40968
484.008	31.08639
484.217	18.44046
484.426	35.30189
484.636	3.68794
484.845	-4.74153
485.054	26.87099
485.263	64.813
485.472	-40.56246
485.682	-0.52684
485.891	66.92111
486.1	-4.74153
486.309	1.58054
486.518	24.76332
486.727	24.76332
486.936	56.38079
487.146	-25.81353
487.355	16.33288
487.564	47.94895
487.773	-25.81353
487.982	-0.52684
488.191	16.33288
488.4	-13.17063
488.609	-15.27784
488.818	-17.38502
489.027	-61.63024
489.236	3.68794
489.445	16.33288
489.654	-0.52684
489.863	69.02924
490.072	22.65567
490.281	58.48881
490.49	-63.73688
490.698	10.01031
490.907	7.90283
491.116	1.58054
491.325	-0.52684
491.534	33.19413
491.743	-38.45555
491.952	109.088
492.16	12.11781
492.369	-21.59933
492.578	-34.24164
492.787	-17.38502
492.996	-44.77622
493.204	1.58054
493.413	-25.81353
493.622	33.19413
493.831	-15.27784
494.039	20.54805
494.248	83.78679
494.457	37.40968
494.665	12.11781
494.874	-13.17063
495.083	60.59685
495.291	24.76332
495.5	10.01031
495.709	58.48881
495.917	-6.84884
496.126	22.65567
496.335	24.76332
496.543	24.76332
496.752	43.73317
496.96	20.54805
497.169	10.01031
497.377	1.58054
497.586	16.33288
497.794	-63.73688
498.003	-55.31017
498.211	52.16483
498.42	-32.13465
498.628	75.35377
498.837	-15.27784
499.045	24.76332
499.254	-13.17063
499.462	41.62532
499.671	45.84105
499.879	52.16483
500.087	35.30189
500.296	-8.95613
500.504	33.19413
500.713	-15.27784
500.921	24.76332
501.129	3.68794
501.338	-4.74153
501.546	16.33288
501.754	12.11781
501.962	-36.3486
502.171	-11.06339
502.379	5.79537
502.587	7.90283
502.795	35.30189
503.004	-38.45555
503.212	10.01031
503.42	-2.6342
503.628	33.19413
503.837	64.813
504.045	-67.95008
504.253	-30.02763
504.461	16.33288
504.669	-53.20343
504.877	-34.24164
505.085	41.62532
505.294	-17.38502
505.502	69.02924
505.71	-0.52684
505.918	62.70491
506.126	10.01031
506.334	-0.52684
506.542	41.62532
506.75	-42.66935
506.958	10.01031
507.166	-34.24164
507.374	50.05688
507.582	5.79537
507.79	-6.84884
507.998	16.33288
508.206	16.33288
508.414	60.59685
508.622	100.65391
508.83	-0.52684
509.037	-4.74153
509.245	5.79537
509.453	-13.17063
509.661	41.62532
509.869	96.437
510.077	35.30189
510.285	-4.74153
510.492	33.19413
510.7	7.90283
510.908	75.35377
511.116	26.87099
511.324	94.32857
511.531	81.6785
511.739	-32.13465
511.947	-51.09666
512.155	-0.52684
512.362	-11.06339
512.57	-6.84884
512.778	7.90283
512.985	-32.13465
513.193	81.6785
513.401	41.62532
513.608	-11.06339
513.816	88.00344
514.024	45.84105
514.231	52.16483
514.439	-6.84884
514.646	85.8951
514.854	33.19413
515.061	-30.02763
515.269	-0.52684
515.477	31.08639
515.684	-17.38502
515.892	33.19413
516.099	10.01031
516.307	-25.81353
516.514	-2.6342
516.722	62.70491
516.929	-2.6342
517.136	35.30189
517.344	16.33288
517.551	14.22533
517.759	83.78679
517.966	-13.17063
518.173	50.05688
518.381	41.62532
518.588	-0.52684
518.796	117.52244
519.003	64.813
519.21	16.33288
519.418	-2.6342
519.625	28.97868
519.832	18.44046
520.039	31.08639
520.247	43.73317
520.454	-0.52684
520.661	-30.02763
520.868	47.94895
521.076	41.62532
521.283	10.01031
521.49	-0.52684
521.697	41.62532
521.904	-42.66935
522.112	41.62532
522.319	-11.06339
522.526	28.97868
522.733	-32.13465
522.94	43.73317
523.147	-25.81353
523.354	3.68794
523.561	10.01031
523.768	12.11781
523.975	100.65391
524.183	33.19413
524.39	117.52244
524.597	20.54805
524.804	16.33288
525.011	47.94895
525.218	-8.95613
525.425	43.73317
525.632	33.19413
525.838	7.90283
526.045	-0.52684
526.252	50.05688
526.459	-4.74153
526.666	3.68794
526.873	-15.27784
527.08	69.02924
527.287	37.40968
527.494	35.30189
527.701	115.4138
527.907	26.87099
528.114	85.8951
528.321	-4.74153
528.528	71.13739
528.735	96.437
528.941	-55.31017
529.148	-25.81353
529.355	20.54805
529.562	88.00344
529.768	16.33288
529.975	24.76332
530.182	24.76332
530.388	28.97868
530.595	-34.24164
530.802	24.76332
531.008	85.8951
531.215	7.90283
531.422	28.97868
531.628	43.73317
531.835	66.92111
532.042	-4.74153
532.248	28.97868
532.455	45.84105
532.661	-40.56246
532.868	18.44046
533.074	52.16483
533.281	-42.66935
533.487	35.30189
533.694	39.51749
533.9	-4.74153
534.107	52.16483
534.313	77.46199
534.52	-59.52357
534.726	75.35377
534.933	-23.70644
535.139	50.05688
535.345	75.35377
535.552	7.90283
535.758	-17.38502
535.965	-23.70644
536.171	41.62532
536.377	-42.66935
536.584	43.73317
536.79	-25.81353
536.996	71.13739
537.203	24.76332
537.409	24.76332
537.615	45.84105
537.821	28.97868
538.028	66.92111
538.234	1.58054
538.44	83.78679
538.646	50.05688
538.853	14.22533
539.059	26.87099
539.265	47.94895
539.471	85.8951
539.677	102.7624
539.883	18.44046
540.09	50.05688
540.296	-21.59933
540.502	35.30189
540.708	-4.74153
540.914	85.8951
541.12	-21.59933
541.326	43.73317
541.532	3.68794
541.738	47.94895
541.944	-30.02763
542.15	79.57023
542.356	62.70491
542.562	71.13739
542.768	69.02924
542.974	60.59685
543.18	77.46199
543.386	102.7624
543.592	69.02924
543.798	81.6785
544.004	10.01031
544.21	22.65567
544.415	58.48881
544.621	69.02924
544.827	50.05688
545.033	-42.66935
545.239	28.97868
545.445	109.088
545.651	16.33288
545.856	7.90283
546.062	12.11781
546.268	16.33288
546.474	54.2728
546.679	-11.06339
546.885	62.70491
547.091	77.46199
547.297	83.78679
547.502	77.46199
547.708	134.39237
547.914	33.19413
548.119	52.16483
548.325	83.78679
548.531	-0.52684
548.736	10.01031
548.942	35.30189
549.147	12.11781
549.353	66.92111
549.559	24.76332
549.764	16.33288
549.97	54.2728
550.175	75.35377
550.381	-17.38502
550.586	58.48881
550.792	39.51749
550.997	92.22017
551.203	73.24557
551.408	54.2728
551.614	58.48881
551.819	92.22017
552.025	77.46199
552.23	88.00344
552.435	85.8951
552.641	92.22017
552.846	43.73317
553.052	35.30189
553.257	117.52244
553.462	14.22533
553.668	7.90283
553.873	69.02924
554.078	26.87099
554.283	-13.17063
554.489	85.8951
554.694	16.33288
554.899	39.51749
555.105	56.38079
555.31	75.35377
555.515	88.00344
555.72	-0.52684
555.925	31.08639
556.131	96.437
556.336	83.78679
556.541	3.68794
556.746	100.65391
556.951	28.97868
557.156	98.54544
557.361	88.00344
557.567	92.22017
557.772	20.54805
557.977	58.48881
558.182	7.90283
558.387	52.16483
558.592	66.92111
558.797	10.01031
559.002	7.90283
559.207	45.84105
559.412	60.59685
559.617	24.76332
559.822	85.8951
560.027	79.57023
560.232	77.46199
560.437	28.97868
560.642	85.8951
560.847	111.19658
561.051	111.19658
561.256	33.19413
561.461	62.70491
561.666	88.00344
561.871	79.57023
562.076	94.32857
562.281	123.8485
562.485	58.48881
562.69	83.78679
562.895	117.52244
563.1	45.84105
563.305	102.7624
563.509	113.30518
563.714	142.82785
563.919	85.8951
564.123	41.62532
564.328	104.87091
564.533	85.8951
564.737	106.97945
564.942	111.19658
565.147	43.73317
565.351	64.813
565.556	60.59685
565.761	79.57023
565.965	96.437
566.17	26.87099
566.374	142.82785
566.579	54.2728
566.784	125.95723
566.988	92.22017
567.193	94.32857
567.397	10.01031
567.602	128.06598
567.806	130.17476
568.011	128.06598
568.215	113.30518
568.42	117.52244
568.624	104.87091
568.828	159.69982
569.033	130.17476
569.237	79.57023
569.442	83.78679
569.646	58.48881
569.85	94.32857
570.055	62.70491
570.259	117.52244
570.463	104.87091
570.668	117.52244
570.872	58.48881
571.076	56.38079
571.281	50.05688
571.485	85.8951
571.689	176.57313
571.893	92.22017
572.098	92.22017
572.302	81.6785
572.506	100.65391
572.71	52.16483
572.914	62.70491
573.119	153.37267
573.323	157.59075
573.527	50.05688
573.731	109.088
573.935	125.95723
574.139	58.48881
574.343	37.40968
574.547	159.69982
574.751	102.7624
574.955	140.71894
575.159	41.62532
575.364	168.13631
575.568	197.66663
575.772	88.00344
575.976	79.57023
576.18	90.11179
576.383	83.78679
576.587	125.95723
576.791	159.69982
576.995	121.73979
577.199	100.65391
577.403	159.69982
577.607	142.82785
577.811	75.35377
578.015	151.26366
578.219	134.39237
578.422	115.4138
578.626	125.95723
578.83	52.16483
579.034	163.91802
579.238	130.17476
579.442	88.00344
579.645	182.90097
579.849	134.39237
580.053	142.82785
580.257	155.4817
580.46	149.15468
580.664	113.30518
580.868	77.46199
581.071	100.65391
581.275	130.17476
581.479	104.87091
581.682	144.93677
581.886	109.088
582.09	62.70491
582.293	229.31064
582.497	69.02924
582.7	92.22017
582.904	203.99507
583.107	147.04571
583.311	134.39237
583.515	113.30518
583.718	147.04571
583.922	174.4639
584.125	159.69982
584.329	144.93677
584.532	208.21413
584.735	155.4817
584.939	142.82785
585.142	142.82785
585.346	176.57313
585.549	125.95723
585.753	47.94895
585.956	144.93677
586.159	161.80891
586.363	106.97945
586.566	60.59685
586.769	159.69982
586.973	75.35377
587.176	193.44776
587.379	163.91802
587.582	138.61006
587.786	163.91802
587.989	189.22898
588.192	117.52244
588.395	206.10459
588.599	172.35468
588.802	195.55718
589.005	185.01029
589.208	151.26366
589.411	172.35468
589.615	147.04571
589.818	172.35468
590.021	153.37267
590.224	222.98148
590.427	195.55718
590.63	220.8718
590.833	185.01029
591.036	231.42039
591.239	176.57313
591.442	216.6525
591.645	220.8718
591.848	187.11962
592.051	220.8718
592.254	130.17476
592.457	161.80891
592.66	178.68239
592.863	218.76214
593.066	195.55718
593.269	235.63997
593.472	263.0691
593.675	233.53017
593.878	174.4639
594.081	117.52244
594.284	151.26366
594.486	248.29916
594.689	172.35468
594.892	237.74979
595.095	176.57313
595.298	170.24549
595.5	170.24549
595.703	231.42039
595.906	168.13631
596.109	258.84902
596.311	244.07936
596.514	328.48976
596.717	244.07936
596.92	187.11962
597.122	252.51905
597.325	180.79167
597.528	227.2009
597.73	208.21413
597.933	277.83996
598.136	210.32369
598.338	170.24549
598.541	248.29916
598.743	254.62902
598.946	239.85962
599.148	197.66663
599.351	307.38441
599.554	298.94277
599.756	176.57313
599.959	178.68239
600.161	260.95905
600.363	210.32369
600.566	180.79167
600.768	260.95905
600.971	311.60534
601.173	216.6525
601.376	218.76214
601.578	246.18925
601.78	201.88557
601.983	273.61962
602.185	220.8718
602.388	166.02716
602.59	328.48976
602.792	286.28086
602.995	220.8718
603.197	218.76214
603.399	172.35468
603.601	256.73901
603.804	254.62902
604.006	237.74979
604.208	218.76214
604.41	294.72206
604.613	303.16355
604.815	286.28086
605.017	254.62902
605.219	275.72978
605.421	233.53017
605.623	256.73901
605.826	355.92937
606.028	320.04741
606.23	336.93241
606.432	303.16355
606.634	343.26457
606.836	151.26366
607.038	294.72206
607.24	246.18925
607.442	296.83241
607.644	237.74979
607.846	294.72206
608.048	286.28086
608.25	260.95905
608.452	286.28086
608.654	372.81673
608.856	336.93241
609.058	271.50948
609.26	307.38441
609.462	286.28086
609.664	260.95905
609.866	328.48976
610.067	212.43327
610.269	339.04311
610.471	336.93241
610.673	353.81853
610.875	279.95016
611.077	334.82172
611.278	292.61173
611.48	383.37188
611.682	328.48976
611.884	282.06037
612.085	313.71583
612.287	385.48296
612.489	334.82172
612.69	406.59467
612.892	193.44776
613.094	286.28086
613.295	311.60534
613.497	467.82768
613.699	305.27397
613.9	372.81673
614.102	372.81673
614.304	330.6004
614.505	256.73901
614.707	398.14978
614.908	273.61962
615.11	353.81853
615.311	277.83996
615.513	389.70517
615.714	260.95905
615.916	385.48296
616.117	343.26457
616.319	349.59689
616.52	347.4861
616.722	421.37383
616.923	265.17916
617.124	381.26081
617.326	307.38441
617.527	448.82293
617.729	322.15797
617.93	389.70517
618.131	362.262
618.333	370.70575
618.534	336.93241
618.735	410.8172
618.937	326.37915
619.138	328.48976
619.339	341.15383
619.54	353.81853
619.742	311.60534
619.943	383.37188
620.144	379.14977
620.345	436.15378
620.546	374.92772
620.748	463.6043
620.949	290.50142
621.15	372.81673
621.351	379.14977
621.552	362.262
621.753	339.04311
621.954	370.70575
622.155	379.14977
622.356	427.708
622.558	345.37533
622.759	429.81942
622.96	231.42039
623.161	417.15113
623.362	277.83996
623.563	423.48521
623.764	404.48342
623.965	362.262
624.166	406.59467
624.366	514.28887
624.567	341.15383
624.768	463.6043
624.969	360.15111
625.17	396.03861
625.371	404.48342
625.572	402.37219
625.773	320.04741
625.973	379.14977
626.174	292.61173
626.375	372.81673
626.576	434.04231
626.777	440.37677
626.977	431.93086
627.178	505.84085
627.379	336.93241
627.58	465.71598
627.78	425.5966
627.981	463.6043
628.182	421.37383
628.382	453.0461
628.583	423.48521
628.784	429.81942
628.984	351.7077
629.185	465.71598
629.386	387.59405
629.586	507.95283
629.787	484.72183
629.987	434.04231
630.188	440.37677
630.388	564.98169
630.589	421.37383
630.79	497.39307
630.99	543.85871
631.191	476.27464
631.391	381.26081
631.591	488.94552
631.792	446.71136
631.992	507.95283
632.193	455.15771
632.393	510.06483
632.594	507.95283
632.794	556.53234
632.994	474.16288
633.195	484.72183
633.395	431.93086
633.595	573.43126
633.796	429.81942
633.996	499.50499
634.196	493.16926
634.397	560.75699
634.597	410.8172
634.797	402.37219
634.997	469.9394
635.198	491.05738
635.398	482.61001
635.598	505.84085
635.798	550.19546
635.998	533.29774
636.199	474.16288
636.399	497.39307
636.599	431.93086
636.799	609.34428
636.999	518.51296
637.199	488.94552
637.399	467.82768
637.599	567.09406
637.799	545.97095
637.999	636.80966
638.199	615.68226
638.399	573.43126
638.599	419.26247
638.799	567.09406
638.999	556.53234
639.199	526.96132
639.399	474.16288
639.599	592.44357
639.799	541.74649
639.999	668.50304
640.199	488.94552
640.399	545.97095
640.599	505.84085
640.799	507.95283
640.998	539.63428
641.198	624.13307
641.398	531.18558
641.598	607.23165
641.798	550.19546
641.997	579.76858
642.197	634.69687
642.397	657.93829
642.597	541.74649
642.796	666.39007
642.996	526.96132
643.196	558.64466
643.395	524.84921
643.595	590.33104
643.795	518.51296
643.994	600.89382
644.194	649.48669
644.394	581.88105
644.593	569.20645
644.793	664.2771
644.992	708.65175
645.192	666.39007
645.392	632.58408
645.591	750.91783
645.791	611.45693
645.99	590.33104
646.19	636.80966
646.389	717.10462
646.589	520.62503
646.788	702.31221
646.987	533.29774
647.187	624.13307
647.386	583.99353
647.586	592.44357
647.785	611.45693
647.984	607.23165
648.184	512.17684
648.383	793.18802
648.582	657.93829
648.782	645.26097
648.981	590.33104
649.18	573.43126
649.38	594.55612
649.579	700.19905
649.778	643.14812
649.977	717.10462
650.177	717.10462
650.376	685.40726
650.575	643.14812
650.774	609.34428
650.973	573.43126
651.173	693.85964
651.372	613.56959
651.571	729.78425
651.77	649.48669
651.969	702.31221
652.168	571.31885
652.367	643.14812
652.566	653.71246
652.765	744.57764
652.964	624.13307
653.163	729.78425
653.362	613.56959
653.561	767.82543
653.76	742.46427
653.959	700.19905
654.158	695.97277
654.357	793.18802
654.556	835.46207
654.755	820.66573
654.954	609.34428
655.153	717.10462
655.352	537.52208
655.551	717.10462
655.749	767.82543
655.948	742.46427
656.147	645.26097
656.346	734.01088
656.545	583.99353
656.743	776.27947
656.942	615.68226
657.141	759.37154
657.34	683.29419
657.538	753.03124
657.737	746.69103
657.936	742.46427
658.135	655.82537
658.333	795.30164
658.532	704.42538
658.731	879.85366
658.929	700.19905
659.128	793.18802
659.326	725.55767
659.525	858.71433
659.724	776.27947
659.922	725.55767
660.121	719.21786
660.319	835.46207
660.518	676.95506
660.716	772.05243
660.915	742.46427
661.113	924.24887
661.312	801.64253
661.51	869.28389
661.709	750.91783
661.907	892.53765
662.105	676.95506
662.304	920.02061
662.502	793.18802
662.701	727.67095
662.899	742.46427
663.097	799.52889
663.296	772.05243
663.494	776.27947
663.692	829.12073
663.891	761.485
664.089	691.74653
664.287	953.84754
664.485	674.84204
664.684	843.91731
664.882	695.97277
665.08	915.79237
665.278	750.91783
665.476	860.82823
665.675	765.71194
665.873	753.03124
666.071	810.0972
666.269	962.30457
666.467	812.21088
666.665	981.33327
666.863	791.07442
667.061	818.55201
667.259	814.32458
667.457	865.05604
667.655	795.30164
667.853	869.28389
668.051	738.23756
668.249	896.76571
668.447	767.82543
668.645	958.07604
668.843	746.69103
669.041	953.84754
669.239	795.30164
669.437	865.05604
669.635	805.86985
669.833	900.9938
670.031	700.19905
670.229	827.00696
670.426	829.12073
670.624	924.24887
670.822	827.00696
671.02	939.04803
671.218	712.87816
671.415	784.73367
671.613	776.27947
671.811	894.65167
672.009	852.3727
672.206	801.64253
672.404	784.73367
672.602	886.19561
672.799	829.12073
672.997	941.16222
673.195	717.10462
673.392	896.76571
673.59	843.91731
673.788	926.36301
673.985	767.82543
674.183	1040.53703
674.38	822.77947
674.578	945.39064
674.775	843.91731
674.973	962.30457
675.17	915.79237
675.368	930.59132
675.565	856.60045
675.763	1015.1634
675.96	945.39064
676.158	991.90501
676.355	827.00696
676.553	1072.25523
676.75	767.82543
676.947	962.30457
677.145	875.62572
677.342	979.21894
677.539	858.71433
677.737	977.10462
677.934	996.13375
678.131	812.21088
678.329	877.73969
678.526	977.10462
678.723	903.10786
678.92	981.33327
679.118	911.56417
679.315	1093.40136
679.512	805.86985
679.709	1063.79692
679.906	972.876
680.104	1021.50672
680.301	827.00696
680.498	1040.53703
680.695	873.51177
680.892	1131.46563
681.089	877.73969
681.286	886.19561
681.483	932.70549
681.68	968.64741
681.877	831.2345
682.075	953.84754
682.272	924.24887
682.469	1017.27783
682.665	928.47716
682.862	1021.50672
683.059	843.91731
683.256	1032.07905
683.453	827.00696
683.65	964.41884
683.847	793.18802
684.044	968.64741
684.241	854.48657
684.438	1029.96458
684.635	900.9938
684.831	1048.99509
685.028	877.73969
685.225	920.02061
685.422	939.04803
685.619	907.336
685.815	879.85366
686.012	998.24813
686.209	797.41526
686.405	892.53765
686.602	896.76571
686.799	886.19561
686.996	805.86985
687.192	900.9938
687.389	850.25884
687.586	1038.42252
687.782	803.75619
687.979	1173.76094
688.175	936.93384
688.372	962.30457
688.568	793.18802
688.765	930.59132
688.962	890.42363
689.158	1015.1634
689.355	795.30164
689.551	905.22192
689.748	947.50485
689.944	989.79065
690.14	862.94213
690.337	928.47716
690.533	985.56195
690.73	991.90501
690.926	911.56417
691.123	911.56417
691.319	1013.04897
691.515	922.13473
691.712	922.13473
691.908	848.14499
692.104	922.13473
692.301	936.93384
692.497	873.51177
692.693	1042.65153
692.889	873.51177
693.086	949.61908
693.282	854.48657
693.478	1142.0393
693.674	886.19561
693.87	930.59132
694.067	966.53312
694.263	960.1903
694.459	839.68967
694.655	985.56195
694.851	810.0972
695.047	987.67629
695.243	977.10462
695.439	1013.04897
695.635	911.56417
695.831	1021.50672
696.027	945.39064
696.224	824.89321
696.42	1021.50672
696.615	1097.63065
696.811	924.24887
697.007	920.02061
697.203	858.71433
697.399	903.10786
697.595	835.46207
697.791	909.45008
697.987	831.2345
698.183	1017.27783
698.379	799.52889
698.575	1099.7453
698.77	1059.5678
698.966	1057.45324
699.162	860.82823
699.358	983.44761
699.554	877.73969
699.749	1013.04897
699.945	879.85366
700.141	1004.59131
700.337	932.70549
700.532	949.61908
700.728	903.10786
700.924	949.61908
701.119	772.05243
701.315	1055.3387
701.511	755.14466
701.706	1099.7453
701.902	974.99031
702.097	1008.82012
702.293	924.24887
702.489	1065.91149
702.684	953.84754
702.88	1034.19354
703.075	941.16222
703.271	1108.20395
703.466	949.61908
703.662	1076.48441
703.857	858.71433
704.053	1095.516
704.248	1008.82012
704.443	1025.73564
704.639	903.10786
704.834	947.50485
705.03	905.22192
705.225	1013.04897
705.42	903.10786
705.616	1038.42252
705.811	947.50485
706.006	1038.42252
706.202	879.85366
706.397	1036.30803
706.592	920.02061
706.787	924.24887
706.983	886.19561
707.178	1023.62118
707.373	905.22192
707.568	1032.07905
707.763	936.93384
707.959	881.96763
708.154	972.876
708.349	1017.27783
708.544	996.13375
708.739	962.30457
708.934	960.1903
709.129	934.81966
709.324	837.57587
709.519	974.99031
709.714	915.79237
709.909	871.39783
710.104	839.68967
710.299	837.57587
710.494	879.85366
710.689	1000.36252
710.884	962.30457
711.079	1036.30803
711.274	879.85366
711.469	1057.45324
711.664	911.56417
711.859	1059.5678
712.054	788.96083
712.249	998.24813
712.443	941.16222
712.638	998.24813
712.833	831.2345
713.028	930.59132
713.223	909.45008
713.417	913.67827
713.612	917.90649
713.807	1015.1634
714.002	981.33327
714.196	947.50485
714.391	894.65167
714.586	848.14499
714.78	905.22192
714.975	1103.97461
715.17	858.71433
715.364	1114.54799
715.559	932.70549
715.754	1044.76605
715.948	939.04803
716.143	1065.91149
716.337	869.28389
716.532	886.19561
716.726	767.82543
716.921	987.67629
717.115	930.59132
717.31	947.50485
717.504	846.03115
717.699	968.64741
717.893	920.02061
718.088	1091.28672
718.282	934.81966
718.476	1015.1634
718.671	831.2345
718.865	1032.07905
719.059	903.10786
719.254	917.90649
719.448	854.48657
719.642	962.30457
719.837	761.485
720.031	920.02061
720.225	782.6201
720.419	920.02061
720.614	958.07604
720.808	987.67629
721.002	858.71433
721.196	1055.3387
721.39	911.56417
721.585	1032.07905
721.779	894.65167
721.973	860.82823
722.167	835.46207
722.361	922.13473
722.555	810.0972
722.749	960.1903
722.943	759.37154
723.137	985.56195
723.331	776.27947
723.525	896.76571
723.719	837.57587
723.913	943.27643
724.107	786.84724
724.301	987.67629
724.495	738.23756
724.689	930.59132
724.883	780.50655
725.077	896.76571
725.271	801.64253
725.465	964.41884
725.659	907.336
725.853	943.27643
726.046	801.64253
726.24	1010.93454
726.434	759.37154
726.628	970.7617
726.822	827.00696
727.015	1068.02606
727.209	803.75619
727.403	924.24887
727.596	862.94213
727.79	831.2345
727.984	852.3727
728.177	941.16222
728.371	803.75619
728.565	962.30457
728.758	807.98352
728.952	1004.59131
729.146	968.64741
729.339	911.56417
729.533	843.91731
729.726	915.79237
729.92	867.16996
730.113	928.47716
730.307	835.46207
730.5	930.59132
730.694	856.60045
730.887	953.84754
731.081	953.84754
731.274	1000.36252
731.468	822.77947
731.661	928.47716
731.854	894.65167
732.048	955.96179
732.241	797.41526
732.435	987.67629
732.628	1010.93454
732.821	1046.88057
733.014	1006.70571
733.208	865.05604
733.401	924.24887
733.594	1032.07905
733.788	843.91731
733.981	936.93384
734.174	884.08162
734.367	939.04803
734.56	892.53765
734.754	981.33327
734.947	924.24887
735.14	936.93384
735.333	1048.99509
735.526	991.90501
735.719	928.47716
735.912	911.56417
736.105	881.96763
736.298	951.73331
736.491	1017.27783
736.684	947.50485
736.877	977.10462
737.07	907.336
737.263	922.13473
737.456	1021.50672
737.649	884.08162
737.842	1063.79692
738.035	939.04803
738.228	852.3727
738.421	877.73969
738.614	856.60045
738.807	970.7617
739	985.56195
739.192	835.46207
739.385	1038.42252
739.578	827.00696
739.771	934.81966
739.964	886.19561
740.156	979.21894
740.349	898.87975
740.542	974.99031
740.735	915.79237
740.927	996.13375
741.12	843.91731
741.313	890.42363
741.505	833.34828
741.698	884.08162
741.891	955.96179
742.083	890.42363
742.276	1013.04897
742.468	1013.04897
742.661	1040.53703
742.854	958.07604
743.046	877.73969
743.239	903.10786
743.431	793.18802
743.624	949.61908
743.816	913.67827
744.009	829.12073
744.201	922.13473
744.393	945.39064
744.586	996.13375
744.778	886.19561
744.971	1029.96458
745.163	953.84754
745.355	941.16222
745.548	881.96763
745.74	839.68967
745.932	924.24887
746.125	1046.88057
746.317	996.13375
746.509	936.93384
746.702	854.48657
746.894	831.2345
747.086	974.99031
747.278	928.47716
747.471	991.90501
747.663	886.19561
747.855	1008.82012
748.047	896.76571
748.239	911.56417
748.431	869.28389
748.623	936.93384
748.815	930.59132
749.008	991.90501
749.2	930.59132
749.392	907.336
749.584	786.84724
749.776	1000.36252
749.968	945.39064
750.16	890.42363
750.352	1004.59131
750.544	934.81966
750.736	805.86985
750.928	981.33327
751.12	837.57587
751.311	852.3727
751.503	949.61908
751.695	970.7617
751.887	890.42363
752.079	960.1903
752.271	837.57587
752.463	824.89321
752.654	873.51177
752.846	941.16222
753.038	791.07442
753.23	922.13473
753.421	881.96763
753.613	873.51177
753.805	881.96763
753.997	964.41884
754.188	915.79237
754.38	852.3727
754.572	683.29419
754.763	854.48657
754.955	708.65175
755.146	996.13375
755.338	877.73969
755.53	818.55201
755.721	814.32458
755.913	905.22192
756.104	700.19905
756.296	829.12073
756.487	831.2345
756.679	907.336
756.87	846.03115
757.062	860.82823
757.253	793.18802
757.445	786.84724
757.636	871.39783
757.827	911.56417
758.019	776.27947
758.21	905.22192
758.401	862.94213
758.593	873.51177
758.784	848.14499
758.975	780.50655
759.167	850.25884
759.358	968.64741
759.549	945.39064
759.74	801.64253
759.932	761.485
760.123	932.70549
760.314	736.12421
760.505	881.96763
760.696	795.30164
760.888	742.46427
761.079	801.64253
761.27	738.23756
761.461	776.27947
761.652	843.91731
761.843	829.12073
762.034	795.30164
762.225	738.23756
762.416	812.21088
762.607	835.46207
762.798	734.01088
762.989	888.30962
763.18	852.3727
763.371	727.67095
763.562	822.77947
763.753	805.86985
763.944	827.00696
764.135	920.02061
764.326	843.91731
764.517	666.39007
764.708	839.68967
764.899	763.59846
765.089	727.67095
765.28	734.01088
765.471	765.71194
765.662	740.35091
765.853	742.46427
766.043	702.31221
766.234	729.78425
766.425	657.93829
766.615	801.64253
766.806	649.48669
766.997	763.59846
767.187	586.10602
767.378	693.85964
767.569	793.18802
767.759	662.16415
767.95	734.01088
768.141	725.55767
768.331	683.29419
768.522	734.01088
768.712	702.31221
768.903	683.29419
769.093	761.485
769.284	744.57764
769.474	748.80442
769.665	700.19905
769.855	746.69103
770.046	729.78425
770.236	712.87816
770.426	617.79494
770.617	712.87816
770.807	676.95506
770.998	668.50304
771.188	780.50655
771.378	685.40726
771.569	837.57587
771.759	615.68226
771.949	624.13307
772.139	615.68226
772.33	660.05121
772.52	545.97095
772.71	539.63428
772.9	666.39007
773.09	674.84204
773.281	638.92247
773.471	615.68226
773.661	569.20645
773.851	710.76495
774.041	611.45693
774.231	710.76495
774.421	651.59957
774.611	738.23756
774.802	541.74649
774.992	645.26097
775.182	615.68226
775.372	700.19905
775.562	668.50304
775.752	583.99353
775.942	693.85964
776.131	558.64466
776.321	624.13307
776.511	558.64466
776.701	655.82537
776.891	691.74653
777.081	643.14812
777.271	514.28887
777.461	556.53234
777.651	598.78124
777.84	628.35855
778.03	626.24581
778.22	603.00642
778.41	615.68226
778.599	507.95283
778.789	628.35855
778.979	548.0832
779.169	693.85964
779.358	499.50499
779.548	590.33104
779.738	535.4099
779.927	626.24581
780.117	674.84204
780.307	590.33104
780.496	491.05738
780.686	573.43126
780.875	660.05121
781.065	708.65175
781.254	535.4099
781.444	734.01088
781.633	505.84085
781.823	575.54369
782.012	531.18558
782.202	581.88105
782.391	476.27464
782.581	548.0832
782.77	552.30774
782.96	598.78124
783.149	448.82293
783.338	552.30774
783.528	438.26527
783.717	507.95283
783.906	488.94552
784.096	537.52208
784.285	461.49263
784.474	537.52208
784.663	472.05113
784.853	469.9394
785.042	543.85871
785.231	710.76495
785.42	398.14978
785.61	609.34428
785.799	558.64466
785.988	548.0832
786.177	609.34428
786.366	499.50499
786.555	491.05738
786.744	425.5966
786.933	499.50499
787.122	611.45693
787.312	480.4982
787.501	429.81942
787.69	438.26527
787.879	514.28887
788.068	503.72888
788.257	539.63428
788.445	510.06483
788.634	575.54369
788.823	444.59982
789.012	560.75699
789.201	448.82293
789.39	505.84085
789.579	469.9394
789.768	529.07344
789.957	400.26098
790.145	450.9345
790.334	474.16288
790.523	548.0832
790.712	624.13307
790.9	522.73711
791.089	499.50499
791.278	526.96132
791.467	541.74649
791.655	457.26933
791.844	440.37677
792.033	503.72888
792.221	362.262
792.41	440.37677
792.599	353.81853
792.787	484.72183
792.976	501.61693
793.164	499.50499
793.353	488.94552
793.541	531.18558
793.73	421.37383
793.918	507.95283
794.107	501.61693
794.295	410.8172
794.484	560.75699
794.672	583.99353
794.861	412.9285
795.049	480.4982
795.238	410.8172
795.426	463.6043
795.614	303.16355
795.803	488.94552
795.991	482.61001
796.179	442.48828
796.368	391.8163
796.556	453.0461
796.744	328.48976
796.932	372.81673
797.121	531.18558
797.309	505.84085
797.497	427.708
797.685	455.15771
797.874	436.15378
798.062	497.39307
798.25	383.37188
798.438	343.26457
798.626	429.81942
798.814	355.92937
799.002	328.48976
799.19	455.15771
799.378	406.59467
799.566	448.82293
799.755	398.14978
799.943	438.26527
800.131	389.70517
800.318	408.70593
800.506	436.15378
800.694	457.26933
800.882	448.82293
801.07	429.81942
801.258	446.71136
801.446	482.61001
801.634	440.37677
801.822	421.37383
802.01	353.81853
802.197	480.4982
802.385	387.59405
802.573	438.26527
802.761	355.92937
802.949	448.82293
803.136	389.70517
803.324	417.15113
803.512	459.38097
803.699	370.70575
803.887	404.48342
804.075	438.26527
804.262	450.9345
804.45	402.37219
804.638	400.26098
804.825	379.14977
805.013	396.03861
805.201	336.93241
805.388	355.92937
805.576	421.37383
805.763	431.93086
805.951	446.71136
806.138	421.37383
806.326	431.93086
806.513	429.81942
806.701	429.81942
806.888	400.26098
807.075	503.72888
807.263	448.82293
807.45	472.05113
807.638	488.94552
807.825	417.15113
808.012	400.26098
808.2	406.59467
808.387	446.71136
808.574	455.15771
808.761	467.82768
808.949	482.61001
809.136	415.03981
809.323	453.0461
809.51	436.15378
809.698	484.72183
809.885	488.94552
810.072	469.9394
810.259	364.37291
810.446	497.39307
810.633	400.26098
810.82	474.16288
811.008	334.82172
811.195	501.61693
811.382	415.03981
811.569	402.37219
811.756	444.59982
811.943	488.94552
812.13	412.9285
812.317	463.6043
812.504	450.9345
812.691	505.84085
812.878	400.26098
813.064	501.61693
813.251	474.16288
813.438	398.14978
813.625	505.84085
813.812	457.26933
813.999	438.26527
814.186	548.0832
814.372	393.92744
814.559	412.9285
814.746	429.81942
814.933	480.4982
815.12	459.38097
815.306	450.9345
815.493	396.03861
815.68	497.39307
815.866	552.30774
816.053	493.16926
816.24	379.14977
816.426	539.63428
816.613	372.81673
816.799	379.14977
816.986	398.14978
817.173	491.05738
817.359	431.93086
817.546	488.94552
817.732	336.93241
817.919	541.74649
818.105	455.15771
818.292	524.84921
818.478	484.72183
818.665	431.93086
818.851	482.61001
819.037	438.26527
819.224	499.50499
819.41	476.27464
819.597	383.37188
819.783	480.4982
819.969	429.81942
820.156	455.15771
820.342	480.4982
820.528	493.16926
820.714	404.48342
820.901	488.94552
821.087	406.59467
821.273	543.85871
821.459	472.05113
821.646	444.59982
821.832	472.05113
822.018	550.19546
822.204	404.48342
822.39	522.73711
822.576	387.59405
822.762	503.72888
822.948	431.93086
823.134	545.97095
823.32	455.15771
823.507	381.26081
823.693	446.71136
823.879	396.03861
824.065	366.48384
824.25	404.48342
824.436	353.81853
824.622	417.15113
824.808	347.4861
824.994	372.81673
825.18	446.71136
825.366	412.9285
825.552	345.37533
825.738	497.39307
825.923	366.48384
826.109	474.16288
826.295	465.71598
826.481	463.6043
826.667	486.83367
826.852	404.48342
827.038	351.7077
827.224	353.81853
827.409	328.48976
827.595	457.26933
827.781	434.04231
827.966	404.48342
828.152	408.70593
828.338	404.48342
828.523	389.70517
828.709	531.18558
828.894	332.71105
829.08	404.48342
829.266	294.72206
829.451	381.26081
829.637	311.60534
829.822	400.26098
830.008	362.262
830.193	419.26247
830.378	431.93086
830.564	404.48342
830.749	364.37291
830.935	349.59689
831.12	372.81673
831.305	366.48384
831.491	353.81853
831.676	366.48384
831.861	320.04741
832.047	442.48828
832.232	406.59467
832.417	328.48976
832.602	364.37291
832.788	408.70593
832.973	269.39935
833.158	370.70575
833.343	332.71105
833.528	404.48342
833.714	410.8172
833.899	412.9285
834.084	374.92772
834.269	482.61001
834.454	368.59479
834.639	330.6004
834.824	353.81853
835.009	429.81942
835.194	294.72206
835.379	364.37291
835.564	315.82634
835.749	330.6004
835.934	305.27397
836.119	391.8163
836.304	292.61173
836.489	303.16355
836.674	303.16355
836.859	330.6004
837.044	372.81673
837.228	229.31064
837.413	336.93241
837.598	349.59689
837.783	366.48384
837.968	343.26457
838.152	282.06037
838.337	309.49486
838.522	328.48976
838.707	311.60534
838.891	358.04023
839.076	311.60534
839.261	313.71583
839.445	256.73901
839.63	313.71583
839.815	313.71583
839.999	305.27397
840.184	379.14977
840.368	256.73901
840.553	372.81673
840.737	303.16355
840.922	326.37915
841.106	222.98148
841.291	303.16355
841.475	229.31064
841.66	290.50142
841.844	265.17916
842.029	279.95016
842.213	294.72206
842.397	336.93241
842.582	260.95905
842.766	328.48976
842.951	311.60534
843.135	273.61962
843.319	313.71583
843.504	311.60534
843.688	353.81853
843.872	231.42039
844.056	203.99507
844.241	334.82172
844.425	248.29916
844.609	282.06037
844.793	260.95905
844.977	328.48976
845.161	341.15383
845.346	246.18925
845.53	252.51905
845.714	254.62902
845.898	284.17061
846.082	341.15383
846.266	343.26457
846.45	235.63997
846.634	271.50948
846.818	296.83241
847.002	265.17916
847.186	332.71105
847.37	254.62902
847.554	320.04741
847.738	246.18925
847.922	286.28086
848.106	284.17061
848.29	311.60534
848.473	254.62902
848.657	244.07936
848.841	239.85962
849.025	286.28086
849.209	303.16355
849.392	294.72206
849.576	252.51905
849.76	263.0691
849.944	203.99507
850.127	214.54287
850.311	254.62902
850.495	210.32369
850.678	244.07936
850.862	231.42039
851.046	199.77609
851.229	197.66663
851.413	193.44776
851.596	222.98148
851.78	201.88557
851.964	294.72206
852.147	172.35468
852.331	201.88557
852.514	260.95905
852.698	214.54287
852.881	233.53017
853.065	269.39935
853.248	195.55718
853.431	206.10459
853.615	231.42039
853.798	218.76214
853.982	151.26366
854.165	279.95016
854.348	203.99507
854.532	229.31064
854.715	269.39935
854.898	176.57313
855.081	159.69982
855.265	235.63997
855.448	180.79167
855.631	130.17476
855.814	201.88557
855.997	210.32369
856.181	168.13631
856.364	227.2009
856.547	161.80891
856.73	235.63997
856.913	220.8718
857.096	229.31064
857.279	195.55718
857.462	193.44776
857.645	170.24549
857.828	197.66663
858.011	79.57023
858.194	222.98148
858.377	134.39237
858.56	174.4639
858.743	220.8718
858.926	161.80891
859.109	210.32369
859.292	195.55718
859.475	193.44776
859.658	185.01029
859.841	147.04571
860.023	176.57313
860.206	195.55718
860.389	191.33836
860.572	195.55718
860.755	195.55718
860.937	125.95723
861.12	157.59075
861.303	155.4817
861.486	187.11962
861.668	153.37267
861.851	231.42039
862.034	218.76214
862.216	210.32369
862.399	231.42039
862.581	161.80891
862.764	176.57313
862.947	180.79167
863.129	218.76214
863.312	111.19658
863.494	155.4817
863.677	218.76214
863.859	151.26366
864.042	115.4138
864.224	134.39237
864.406	134.39237
864.589	203.99507
864.771	185.01029
864.954	170.24549
865.136	138.61006
865.318	187.11962
865.501	193.44776
865.683	104.87091
865.865	174.4639
866.048	218.76214
866.23	218.76214
866.412	185.01029
866.594	155.4817
866.777	147.04571
866.959	157.59075
867.141	130.17476
867.323	185.01029
867.505	75.35377
867.687	125.95723
867.869	176.57313
868.052	239.85962
868.234	90.11179
868.416	170.24549
868.598	119.63111
868.78	79.57023
868.962	54.2728
869.144	195.55718
869.326	155.4817
869.508	210.32369
869.69	144.93677
869.872	66.92111
870.054	130.17476
870.236	128.06598
870.417	102.7624
870.599	157.59075
870.781	94.32857
870.963	113.30518
871.145	75.35377
871.327	121.73979
871.508	149.15468
871.69	168.13631
871.872	69.02924
872.054	100.65391
872.235	88.00344
872.417	176.57313
872.599	151.26366
872.78	119.63111
872.962	142.82785
873.144	140.71894
873.325	168.13631
873.507	85.8951
873.689	79.57023
873.87	170.24549
874.052	144.93677
874.233	130.17476
874.415	185.01029
874.596	142.82785
874.778	71.13739
874.959	94.32857
875.141	125.95723
875.322	90.11179
875.503	121.73979
875.685	163.91802
875.866	155.4817
876.048	151.26366
876.229	100.65391
876.41	168.13631
876.592	92.22017
876.773	193.44776
876.954	117.52244
877.136	66.92111
877.317	100.65391
877.498	170.24549
877.679	134.39237
877.86	220.8718
878.042	182.90097
878.223	136.50121
878.404	121.73979
878.585	161.80891
878.766	58.48881
878.947	109.088
879.128	147.04571
879.309	193.44776
879.49	102.7624
879.672	115.4138
879.853	81.6785
880.034	102.7624
880.215	174.4639
880.396	104.87091
880.576	117.52244
880.757	189.22898
880.938	138.61006
881.119	185.01029
881.3	121.73979
881.481	197.66663
881.662	125.95723
881.843	180.79167
882.023	157.59075
882.204	128.06598
882.385	142.82785
882.566	210.32369
882.747	144.93677
882.927	60.59685
883.108	144.93677
883.289	115.4138
883.469	159.69982
883.65	178.68239
883.831	81.6785
884.011	140.71894
884.192	125.95723
884.373	121.73979
884.553	125.95723
884.734	185.01029
884.914	168.13631
885.095	151.26366
885.275	128.06598
885.456	117.52244
885.636	147.04571
885.817	231.42039
885.997	98.54544
886.178	222.98148
886.358	100.65391
886.538	144.93677
886.719	64.813
886.899	180.79167
887.08	109.088
887.26	79.57023
887.44	142.82785
887.621	153.37267
887.801	125.95723
887.981	144.93677
888.161	182.90097
888.342	195.55718
888.522	123.8485
888.702	96.437
888.882	193.44776
889.062	85.8951
889.242	128.06598
889.423	214.54287
889.603	134.39237
889.783	176.57313
889.963	147.04571
890.143	189.22898
890.323	180.79167
890.503	94.32857
890.683	125.95723
890.863	193.44776
891.043	155.4817
891.223	214.54287
891.403	161.80891
891.583	136.50121
891.763	75.35377
891.943	168.13631
892.122	132.28355
892.302	151.26366
892.482	130.17476
892.662	163.91802
892.842	113.30518
893.022	151.26366
893.201	142.82785
893.381	149.15468
893.561	147.04571
893.741	125.95723
893.92	172.35468
894.1	147.04571
894.28	168.13631
894.459	151.26366
894.639	125.95723
894.819	187.11962
894.998	147.04571
895.178	176.57313
895.357	117.52244
895.537	163.91802
895.716	43.73317
895.896	26.87099
896.075	168.13631
896.255	142.82785
896.434	153.37267
896.614	142.82785
896.793	144.93677
896.973	102.7624
897.152	109.088
897.331	134.39237
897.511	170.24549
897.69	121.73979
897.87	161.80891
898.049	96.437
898.228	85.8951
898.407	142.82785
898.587	142.82785
898.766	136.50121
898.945	71.13739
899.124	159.69982
899.304	125.95723
899.483	168.13631
899.662	96.437
899.841	92.22017
900.02	111.19658
900.199	161.80891
900.378	83.78679
900.557	69.02924
900.737	79.57023
900.916	73.24557
901.095	100.65391
901.274	75.35377
901.453	66.92111
901.632	79.57023
901.811	109.088
901.989	102.7624
902.168	54.2728
902.347	125.95723
902.526	106.97945
902.705	92.22017
902.884	102.7624
903.063	31.08639
903.242	151.26366
903.42	83.78679
903.599	50.05688
903.778	90.11179
903.957	121.73979
904.135	96.437
904.314	50.05688
904.493	134.39237
904.672	100.65391
904.85	172.35468
905.029	66.92111
905.207	136.50121
905.386	104.87091
905.565	92.22017
905.743	104.87091
905.922	83.78679
906.1	77.46199
906.279	134.39237
906.457	77.46199
906.636	83.78679
906.814	58.48881
906.993	35.30189
907.171	66.92111
907.35	66.92111
907.528	50.05688
907.707	117.52244
907.885	60.59685
908.063	43.73317
908.242	58.48881
908.42	66.92111
908.598	54.2728
908.777	85.8951
908.955	60.59685
909.133	109.088
909.311	88.00344
909.49	41.62532
909.668	50.05688
909.846	-42.66935
910.024	130.17476
910.202	7.90283
910.38	79.57023
910.559	75.35377
910.737	-15.27784
910.915	3.68794
911.093	10.01031
911.271	71.13739
911.449	130.17476
911.627	31.08639
911.805	113.30518
911.983	75.35377
912.161	64.813
912.339	47.94895
912.517	83.78679
912.695	60.59685
912.872	75.35377
913.05	159.69982
913.228	142.82785
913.406	37.40968
913.584	77.46199
913.762	14.22533
913.939	81.6785
914.117	111.19658
914.295	81.6785
914.473	56.38079
914.65	62.70491
914.828	22.65567
915.006	144.93677
915.184	96.437
915.361	77.46199
915.539	16.33288
915.716	10.01031
915.894	79.57023
916.072	-0.52684
916.249	121.73979
916.427	-2.6342
916.604	102.7624
916.782	54.2728
916.959	90.11179
917.137	58.48881
917.314	54.2728
917.492	66.92111
917.669	81.6785
917.847	90.11179
918.024	85.8951
918.201	24.76332
918.379	62.70491
918.556	73.24557
918.733	-0.52684
918.911	119.63111
919.088	60.59685
919.265	-59.52357
919.442	66.92111
919.62	136.50121
919.797	81.6785
919.974	41.62532
920.151	117.52244
920.328	10.01031
920.506	106.97945
920.683	58.48881
920.86	130.17476
921.037	54.2728
921.214	92.22017
921.391	54.2728
921.568	-4.74153
921.745	81.6785
921.922	77.46199
922.099	96.437
922.276	16.33288
922.453	-17.38502
922.63	7.90283
922.807	37.40968
922.984	98.54544
923.161	43.73317
923.338	37.40968
923.514	28.97868
923.691	16.33288
923.868	43.73317
924.045	16.33288
924.222	16.33288
924.399	52.16483
924.575	88.00344
924.752	66.92111
924.929	66.92111
925.105	71.13739
925.282	10.01031
925.459	94.32857
925.635	60.59685
925.812	71.13739
925.989	-8.95613
926.165	52.16483
926.342	85.8951
926.518	52.16483
926.695	94.32857
926.871	37.40968
927.048	52.16483
927.224	58.48881
927.401	16.33288
927.577	45.84105
927.754	28.97868
927.93	75.35377
928.107	35.30189
928.283	14.22533
928.459	125.95723
928.636	-8.95613
928.812	50.05688
928.988	26.87099
929.165	26.87099
929.341	-0.52684
929.517	28.97868
929.693	22.65567
929.87	35.30189
930.046	113.30518
930.222	-38.45555
930.398	43.73317
930.574	12.11781
930.751	45.84105
930.927	-8.95613
931.103	79.57023
931.279	54.2728
931.455	60.59685
931.631	56.38079
931.807	10.01031
931.983	41.62532
932.159	20.54805
932.335	79.57023
932.511	-30.02763
932.687	14.22533
932.863	31.08639
933.039	-67.95008
933.215	-34.24164
933.391	22.65567
933.566	7.90283
933.742	-0.52684
933.918	100.65391
934.094	109.088
934.27	24.76332
934.445	5.79537
934.621	-17.38502
934.797	12.11781
934.973	45.84105
935.148	83.78679
935.324	58.48881
935.5	45.84105
935.675	1.58054
935.851	134.39237
936.027	7.90283
936.202	121.73979
936.378	16.33288
936.553	-6.84884
936.729	64.813
936.904	45.84105
937.08	35.30189
937.255	35.30189
937.431	41.62532
937.606	-4.74153
937.782	37.40968
937.957	24.76332
938.133	52.16483
938.308	45.84105
938.483	96.437
938.659	-25.81353
938.834	28.97868
939.009	104.87091
939.185	-15.27784
939.36	10.01031
939.535	22.65567
939.71	16.33288
939.886	33.19413
940.061	-13.17063
940.236	-15.27784
940.411	41.62532
940.586	-30.02763
940.761	66.92111
940.937	-34.24164
941.112	125.95723
941.287	16.33288
941.462	26.87099
941.637	41.62532
941.812	-15.27784
941.987	69.02924
942.162	16.33288
942.337	100.65391
942.512	1.58054
942.687	41.62532
942.862	31.08639
943.037	64.813
943.212	-4.74153
943.386	-32.13465
943.561	-34.24164
943.736	-6.84884
943.911	-23.70644
944.086	3.68794
944.26	26.87099
944.435	10.01031
944.61	-32.13465
944.785	-0.52684
944.959	7.90283
945.134	28.97868
945.309	-8.95613
945.483	-78.48264
945.658	-38.45555
945.833	-8.95613
946.007	-48.98987
946.182	54.2728
946.357	109.088
946.531	26.87099
946.706	31.08639
946.88	-15.27784
947.055	69.02924
947.229	-8.95613
947.404	66.92111
947.578	7.90283
947.752	-30.02763
947.927	-17.38502
948.101	-30.02763
948.276	5.79537
948.45	45.84105
948.624	60.59685
948.799	-6.84884
948.973	-4.74153
949.147	52.16483
949.321	24.76332
949.496	31.08639
949.67	-0.52684
949.844	-23.70644
950.018	50.05688
950.193	16.33288
950.367	71.13739
950.541	71.13739
950.715	24.76332
950.889	39.51749
951.063	-38.45555
951.237	18.44046
951.411	18.44046
951.585	37.40968
951.759	-76.37618
951.933	33.19413
952.107	71.13739
952.281	50.05688
952.455	-25.81353
952.629	60.59685
952.803	3.68794
952.977	31.08639
953.151	18.44046
953.325	31.08639
953.499	28.97868
953.672	24.76332
953.846	-17.38502
954.02	41.62532
954.194	-8.95613
954.368	66.92111
954.541	54.2728
954.715	50.05688
954.889	22.65567
955.062	-30.02763
955.236	-17.38502
955.41	-13.17063
955.583	-38.45555
955.757	58.48881
955.93	16.33288
956.104	100.65391
956.278	-30.02763
956.451	7.90283
956.625	-25.81353
956.798	20.54805
956.972	58.48881
957.145	12.11781
957.319	71.13739
957.492	41.62532
957.665	-8.95613
957.839	-13.17063
958.012	37.40968
958.185	10.01031
958.359	-0.52684
958.532	39.51749
958.705	-4.74153
958.879	35.30189
959.052	-34.24164
959.225	20.54805
959.398	-0.52684
959.572	-11.06339
959.745	52.16483
959.918	-4.74153
960.091	92.22017
960.264	5.79537
960.438	43.73317
960.611	64.813
960.784	33.19413
960.957	20.54805
961.13	79.57023
961.303	50.05688
961.476	24.76332
961.649	-4.74153
961.822	-55.31017
961.995	96.437
962.168	26.87099
962.341	-17.38502
962.514	-15.27784
962.686	45.84105
962.859	37.40968
963.032	7.90283
963.205	26.87099
963.378	28.97868
963.551	7.90283
963.723	60.59685
963.896	7.90283
964.069	20.54805
964.242	-4.74153
964.414	-0.52684
964.587	-25.81353
964.76	-40.56246
964.932	33.19413
965.105	16.33288
965.278	50.05688
965.45	66.92111
965.623	92.22017
965.795	-40.56246
965.968	-4.74153
966.14	43.73317
966.313	-13.17063
966.485	41.62532
966.658	58.48881
966.83	7.90283
967.003	28.97868
967.175	22.65567
967.348	28.97868
967.52	123.8485
967.692	-17.38502
967.865	28.97868
968.037	1.58054
968.209	-6.84884
968.382	-76.37618
968.554	50.05688
968.726	20.54805
968.898	7.90283
969.071	-72.16318
969.243	35.30189
969.415	-8.95613
969.587	16.33288
969.759	31.08639
969.932	52.16483
970.104	22.65567
970.276	39.51749
970.448	16.33288
970.62	16.33288
970.792	-34.24164
970.964	79.57023
971.136	-6.84884
971.308	62.70491
971.48	28.97868
971.652	121.73979
971.824	-17.38502
971.996	43.73317
972.168	18.44046
972.339	-25.81353
972.511	-17.38502
972.683	-38.45555
972.855	28.97868
973.027	41.62532
973.199	75.35377
973.37	24.76332
973.542	64.813
973.714	37.40968
973.886	7.90283
974.057	-48.98987
974.229	24.76332
974.401	-42.66935
974.572	66.92111
974.744	7.90283
974.915	31.08639
975.087	45.84105
975.259	-30.02763
975.43	-17.38502
975.602	92.22017
975.773	10.01031
975.945	58.48881
976.116	7.90283
976.288	28.97868
976.459	7.90283
976.63	7.90283
976.802	-19.49219
976.973	-34.24164
977.145	-13.17063
977.316	52.16483
977.487	-25.81353
977.659	-25.81353
977.83	79.57023
978.001	-42.66935
978.172	12.11781
978.344	24.76332
978.515	31.08639
978.686	-32.13465
978.857	33.19413
979.028	-8.95613
979.2	52.16483
979.371	16.33288
979.542	-11.06339
979.713	41.62532
979.884	-4.74153
980.055	-8.95613
980.226	33.19413
980.397	33.19413
980.568	7.90283
980.739	-23.70644
980.91	24.76332
981.081	-15.27784
981.252	-0.52684
981.423	16.33288
981.594	26.87099
981.765	-8.95613
981.936	16.33288
982.106	35.30189
982.277	22.65567
982.448	-6.84884
982.619	-0.52684
982.79	-23.70644
982.96	33.19413
983.131	-0.52684
983.302	-25.81353
983.472	-38.45555
983.643	7.90283
983.814	24.76332
983.984	-21.59933
984.155	33.19413
984.326	18.44046
984.496	45.84105
984.667	1.58054
984.837	-8.95613
985.008	16.33288
985.178	-19.49219
985.349	3.68794
985.519	-55.31017
985.69	3.68794
985.86	-17.38502
986.031	18.44046
986.201	26.87099
986.371	-19.49219
986.542	58.48881
986.712	69.02924
986.882	-6.84884
987.053	26.87099
987.223	45.84105
987.393	12.11781
987.563	-23.70644
987.734	58.48881
987.904	22.65567
988.074	12.11781
988.244	7.90283
988.414	-17.38502
988.585	-0.52684
988.755	1.58054
988.925	16.33288
989.095	92.22017
989.265	-4.74153
989.435	-13.17063
989.605	-11.06339
989.775	-25.81353
989.945	-51.09666
990.115	-30.02763
990.285	54.2728
990.455	22.65567
990.625	71.13739
990.795	-17.38502
990.965	-38.45555
991.134	22.65567
991.304	-19.49219
991.474	5.79537
991.644	-63.73688
991.814	-4.74153
991.984	12.11781
992.153	33.19413
992.323	-34.24164
992.493	-82.69548
992.662	16.33288
992.832	14.22533
993.002	3.68794
993.171	60.59685
993.341	26.87099
993.511	7.90283
993.68	-70.05664
993.85	-13.17063
994.019	43.73317
994.189	-48.98987
994.358	-17.38502
994.528	66.92111
994.697	-0.52684
994.867	20.54805
995.036	54.2728
995.206	-0.52684
995.375	5.79537
995.544	20.54805
995.714	-17.38502
995.883	41.62532
996.052	-34.24164
996.222	-17.38502
996.391	62.70491
996.56	12.11781
996.73	41.62532
996.899	5.79537
997.068	18.44046
997.237	-8.95613
997.406	45.84105
997.576	41.62532
997.745	-21.59933
997.914	45.84105
998.083	-0.52684
998.252	50.05688
998.421	-51.09666
998.59	-8.95613
998.759	22.65567
998.928	75.35377
999.097	7.90283
999.266	54.2728
999.435	41.62532
999.604	-32.13465
999.773	33.19413
999.942	-0.52684
1000.111	60.59685
1000.28	-0.52684
1000.448	16.33288
1000.617	-25.81353
1000.786	10.01031
1000.955	-34.24164
1001.124	28.97868
1001.292	37.40968
1001.461	7.90283
1001.63	41.62532
1001.798	18.44046
1001.967	43.73317
1002.136	16.33288
1002.304	52.16483
1002.473	7.90283
1002.642	5.79537
1002.81	-21.59933
1002.979	7.90283
1003.147	-25.81353
1003.316	37.40968
1003.484	58.48881
1003.653	41.62532
1003.821	1.58054
1003.99	7.90283
1004.158	-13.17063
1004.327	26.87099
1004.495	66.92111
1004.663	-17.38502
1004.832	10.01031
1005	41.62532
1005.168	24.76332
1005.337	-67.95008
1005.505	-17.38502
1005.673	83.78679
1005.842	-59.52357
1006.01	-38.45555
1006.178	16.33288
1006.346	-8.95613
1006.514	-17.38502
1006.683	-13.17063
1006.851	35.30189
1007.019	-25.81353
1007.187	-38.45555
1007.355	14.22533
1007.523	28.97868
1007.691	24.76332
1007.859	16.33288
1008.027	-84.80186
1008.195	24.76332
1008.363	28.97868
1008.531	18.44046
1008.699	33.19413
1008.867	22.65567
1009.035	28.97868
1009.203	-25.81353
1009.37	5.79537
1009.538	-17.38502
1009.706	-23.70644
1009.874	58.48881
1010.042	-34.24164
1010.209	-2.6342
1010.377	-4.74153
1010.545	10.01031
1010.713	31.08639
1010.88	16.33288
1011.048	26.87099
1011.216	26.87099
1011.383	31.08639
1011.551	56.38079
1011.718	-42.66935
1011.886	-55.31017
1012.054	37.40968
1012.221	-13.17063
1012.389	-55.31017
1012.556	-15.27784
1012.724	28.97868
1012.891	-55.31017
1013.058	92.22017
1013.226	-6.84884
1013.393	3.68794
1013.561	-25.81353
1013.728	56.38079
1013.895	7.90283
1014.063	16.33288
1014.23	41.62532
1014.397	26.87099
1014.565	24.76332
1014.732	-4.74153
1014.899	5.79537
1015.066	-15.27784
1015.233	12.11781
1015.401	-23.70644
1015.568	-61.63024
1015.735	-48.98987
1015.902	22.65567
1016.069	-21.59933
1016.236	-13.17063
1016.403	5.79537
1016.57	-21.59933
1016.737	16.33288
1016.904	-17.38502
1017.071	39.51749
1017.238	-59.52357
1017.405	-23.70644
1017.572	33.19413
1017.739	16.33288
1017.906	-57.41689
1018.073	66.92111
1018.24	7.90283
1018.407	24.76332
1018.573	58.48881
1018.74	-101.65198
1018.907	69.02924
1019.074	28.97868
1019.241	33.19413
1019.407	5.79537
1019.574	-6.84884
1019.741	-38.45555
1019.907	3.68794
1020.074	1.58054
1020.241	-89.01455
1020.407	-13.17063
1020.574	28.97868
1020.74	-67.95008
1020.907	41.62532
1021.073	69.02924
1021.24	-0.52684
1021.406	-57.41689
1021.573	1.58054
1021.739	33.19413
1021.906	-17.38502
1022.072	-21.59933
1022.239	-13.17063
1022.405	-17.38502
1022.571	24.76332
1022.738	56.38079
1022.904	-84.80186
1023.07	-8.95613
1023.237	43.73317
1023.403	-34.24164
1023.569	-6.84884
1023.735	18.44046
1023.902	-13.17063
1024.068	-65.84349
1024.234	58.48881
1024.4	62.70491
1024.566	50.05688
1024.732	-27.92059
1024.898	-76.37618
1025.065	-76.37618
1025.231	45.84105
1025.397	16.33288
1025.563	-63.73688
1025.729	35.30189
1025.895	10.01031
1026.061	39.51749
1026.227	12.11781
1026.392	26.87099
1026.558	1.58054
1026.724	26.87099
1026.89	50.05688
1027.056	-59.52357
1027.222	-0.52684
1027.388	-6.84884
1027.553	3.68794
1027.719	20.54805
1027.885	58.48881
1028.051	-23.70644
1028.216	71.13739
1028.382	16.33288
1028.548	62.70491
1028.713	-30.02763
1028.879	-48.98987
1029.045	-21.59933
1029.21	-32.13465
1029.376	-11.06339
1029.541	62.70491
1029.707	-19.49219
1029.873	16.33288
1030.038	1.58054
1030.204	-23.70644
1030.369	-34.24164
1030.534	-46.88306
1030.7	-55.31017
1030.865	35.30189
1031.031	-34.24164
1031.196	-17.38502
1031.361	37.40968
1031.527	45.84105
1031.692	-13.17063
1031.857	-25.81353
1032.023	20.54805
1032.188	-27.92059
1032.353	-6.84884
1032.518	-2.6342
1032.684	3.68794
1032.849	41.62532
1033.014	20.54805
1033.179	33.19413
1033.344	-17.38502
1033.509	22.65567
1033.674	12.11781
1033.839	-17.38502
1034.004	-15.27784
1034.17	-13.17063
1034.335	-8.95613
1034.5	-34.24164
1034.664	-13.17063
1034.829	-17.38502
1034.994	-8.95613
1035.159	16.33288
1035.324	-44.77622
1035.489	69.02924
1035.654	7.90283
1035.819	-11.06339
1035.984	-34.24164
1036.148	-6.84884
1036.313	-21.59933
1036.478	-32.13465
1036.643	-17.38502
1036.807	-0.52684
1036.972	22.65567
1037.137	62.70491
1037.301	-13.17063
1037.466	41.62532
1037.631	10.01031
1037.795	66.92111
1037.96	77.46199
1038.124	3.68794
1038.289	33.19413
1038.454	79.57023
1038.618	41.62532
1038.783	64.813
1038.947	-40.56246
1039.111	-48.98987
1039.276	33.19413
1039.44	-65.84349
1039.605	1.58054
1039.769	-17.38502
1039.933	26.87099
1040.098	-67.95008
1040.262	-42.66935
1040.426	-11.06339
1040.591	-0.52684
1040.755	24.76332
1040.919	-53.20343
1041.083	66.92111
1041.248	39.51749
1041.412	-25.81353
1041.576	1.58054
1041.74	12.11781
1041.904	-23.70644
1042.068	12.11781
1042.232	7.90283
1042.397	62.70491
1042.561	1.58054
1042.725	-25.81353
1042.889	18.44046
1043.053	47.94895
1043.217	-0.52684
1043.381	28.97868
1043.544	7.90283
1043.708	35.30189
1043.872	12.11781
1044.036	-42.66935
1044.2	-93.22713
1044.364	-74.26969
1044.528	-8.95613
1044.691	18.44046
1044.855	35.30189
1045.019	-30.02763
1045.183	60.59685
1045.346	24.76332
1045.51	12.11781
1045.674	-46.88306
1045.837	-15.27784
1046.001	16.33288
1046.165	-48.98987
1046.328	28.97868
1046.492	-51.09666
1046.655	-8.95613
1046.819	-48.98987
1046.983	92.22017
1047.146	14.22533
1047.31	-6.84884
1047.473	-25.81353
1047.636	-44.77622
1047.8	60.59685
1047.963	14.22533
1048.127	-32.13465
1048.29	10.01031
