Data from mixed_try6.1_USB4F045381__7__00291.txt Node

Date: Thu Apr 03 20:31:47 EDT 2025
User: mmckonesweet
Spectrometer: USB4F04538
Trigger mode: 4
Integration Time (sec): 2.700000E-3
Scans to average: 1
Electric dark correction enabled: true
Nonlinearity correction enabled: true
Boxcar width: 0
XAxis mode: Wavelengths
Number of Pixels in Spectrum: 3648
>>>>>Begin Spectral Data<<<<<
345.52	-3.16104
345.736	-3.16104
345.952	-3.16104
346.168	-15.80464
346.384	-34.76838
346.6	17.91356
346.816	-38.98228
347.032	-70.58328
347.248	-1.05368
347.464	-49.51657
347.68	24.2364
347.896	-5.26836
348.112	15.80599
348.328	38.99053
348.544	38.99053
348.76	7.37596
348.975	22.12877
349.191	-104.28467
349.407	66.39408
349.623	-5.26836
349.839	-3.16104
350.055	13.69845
350.27	-62.1569
350.486	5.26851
350.702	106.45231
350.918	45.31408
351.133	13.69845
351.349	93.80147
351.565	64.28597
351.781	76.93493
351.996	17.91356
352.212	32.66719
352.428	76.93493
352.644	-55.83685
352.859	22.12877
353.075	17.91356
353.291	20.02115
353.506	-20.01897
353.722	55.85379
353.938	-20.01897
354.153	20.02115
354.369	49.5299
354.584	-74.79631
354.8	36.88273
355.016	64.28597
355.231	30.55946
355.447	3.16109
355.662	-7.37567
355.878	76.93493
356.093	5.26851
356.309	-41.08919
356.524	-11.5902
356.74	98.01833
356.955	43.20621
357.171	30.55946
357.386	38.99053
357.602	30.55946
357.817	47.42198
358.033	26.34407
358.248	47.42198
358.464	57.9618
358.679	30.55946
358.895	68.5022
359.11	47.42198
359.325	51.63784
359.541	-9.48295
359.756	106.45231
359.972	15.80599
360.187	-36.87534
360.402	72.71852
360.618	83.25972
360.833	7.37596
361.048	15.80599
361.264	-34.76838
361.479	22.12877
361.694	-11.5902
361.909	47.42198
362.125	26.34407
362.34	30.55946
362.555	26.34407
362.77	-7.37567
362.986	55.85379
363.201	13.69845
363.416	3.16109
363.631	41.09836
363.847	28.45175
364.062	43.20621
364.277	5.26851
364.492	5.26851
364.707	41.09836
364.922	1.05369
365.138	7.37596
365.353	-5.26836
365.568	-1.05368
365.783	5.26851
365.998	43.20621
366.213	-20.01897
366.428	13.69845
366.643	36.88273
366.858	57.9618
367.073	30.55946
367.288	-1.05368
367.503	43.20621
367.718	-11.5902
367.933	64.28597
368.148	41.09836
368.363	-28.44736
368.578	64.28597
368.793	-11.5902
369.008	13.69845
369.223	5.26851
369.438	13.69845
369.653	-28.44736
369.868	-5.26836
370.083	9.48343
370.298	-3.16104
370.513	-53.73012
370.728	-60.05024
370.943	5.26851
371.157	28.45175
371.372	-22.12611
371.587	-28.44736
371.802	22.12877
372.017	91.69308
372.232	13.69845
372.446	9.48343
372.661	11.59093
372.876	-121.13285
373.091	26.34407
373.306	30.55946
373.52	-1.05368
373.735	-1.05368
373.95	47.42198
374.165	-28.44736
374.379	22.12877
374.594	47.42198
374.809	-11.5902
375.023	11.59093
375.238	-20.01897
375.453	-1.05368
375.667	38.99053
375.882	22.12877
376.097	9.48343
376.311	41.09836
376.526	85.36802
376.741	24.2364
376.955	-11.5902
377.17	17.91356
377.384	-20.01897
377.599	38.99053
377.813	-41.08919
378.028	-47.40976
378.242	1.05369
378.457	22.12877
378.672	49.5299
378.886	66.39408
379.101	-36.87534
379.315	30.55946
379.53	-7.37567
379.744	81.15143
379.958	26.34407
380.173	-45.30293
380.387	-57.94356
380.602	13.69845
380.816	38.99053
381.031	9.48343
381.245	47.42198
381.459	22.12877
381.674	-20.01897
381.888	15.80599
382.103	13.69845
382.317	-34.76838
382.531	-17.91182
382.746	38.99053
382.96	-32.6614
383.174	68.5022
383.388	22.12877
383.603	43.20621
383.817	3.16109
384.031	-20.01897
384.246	15.80599
384.46	-20.01897
384.674	-20.01897
384.888	7.37596
385.103	28.45175
385.317	-3.16104
385.531	-68.47672
385.745	-53.73012
385.959	13.69845
386.174	32.66719
386.388	72.71852
386.602	38.99053
386.816	41.09836
387.03	7.37596
387.244	5.26851
387.458	22.12877
387.672	9.48343
387.887	1.05369
388.101	-11.5902
388.315	45.31408
388.529	43.20621
388.743	-7.37567
388.957	-34.76838
389.171	15.80599
389.385	-68.47672
389.599	-26.3403
389.813	-62.1569
390.027	66.39408
390.241	45.31408
390.455	22.12877
390.669	9.48343
390.883	95.90989
391.097	26.34407
391.311	-17.91182
391.525	30.55946
391.738	-17.91182
391.952	43.20621
392.166	-51.62336
392.38	26.34407
392.594	-3.16104
392.808	-32.6614
393.022	5.26851
393.236	74.82672
393.449	81.15143
393.663	43.20621
393.877	38.99053
394.091	116.99528
394.305	17.91356
394.518	-57.94356
394.732	-5.26836
394.946	22.12877
395.16	17.91356
395.373	15.80599
395.587	-5.26836
395.801	13.69845
396.015	64.28597
396.228	15.80599
396.442	13.69845
396.656	55.85379
396.869	-34.76838
397.083	47.42198
397.297	-3.16104
397.51	47.42198
397.724	-62.1569
397.938	-9.48295
398.151	-20.01897
398.365	47.42198
398.578	-20.01897
398.792	-3.16104
399.005	-62.1569
399.219	-62.1569
399.433	17.91356
399.646	38.99053
399.86	13.69845
400.073	26.34407
400.287	49.5299
400.5	-36.87534
400.714	24.2364
400.927	47.42198
401.141	-38.98228
401.354	-3.16104
401.567	24.2364
401.781	-28.44736
401.994	-32.6614
402.208	43.20621
402.421	43.20621
402.635	-11.5902
402.848	26.34407
403.061	22.12877
403.275	22.12877
403.488	30.55946
403.701	-24.23321
403.915	43.20621
404.128	7.37596
404.341	17.91356
404.555	41.09836
404.768	91.69308
404.981	62.17789
405.195	53.7458
405.408	-34.76838
405.621	-11.5902
405.834	30.55946
406.048	41.09836
406.261	32.66719
406.474	64.28597
406.687	22.12877
406.9	30.55946
407.114	34.77495
407.327	-15.80464
407.54	15.80599
407.753	32.66719
407.966	-43.19607
408.179	36.88273
408.392	22.12877
408.605	32.66719
408.819	28.45175
409.032	81.15143
409.245	-70.58328
409.458	13.69845
409.671	-57.94356
409.884	9.48343
410.097	-45.30293
410.31	43.20621
410.523	24.2364
410.736	55.85379
410.949	-34.76838
411.162	20.02115
411.375	47.42198
411.588	74.82672
411.801	15.80599
412.014	49.5299
412.227	11.59093
412.44	76.93493
412.653	-34.76838
412.865	-15.80464
413.078	-11.5902
413.291	13.69845
413.504	32.66719
413.717	-1.05368
413.93	-62.1569
414.143	-9.48295
414.356	-15.80464
414.568	-3.16104
414.781	7.37596
414.994	9.48343
415.207	-17.91182
415.42	30.55946
415.632	-32.6614
415.845	-11.5902
416.058	38.99053
416.271	51.63784
416.483	7.37596
416.696	93.80147
416.909	15.80599
417.121	28.45175
417.334	11.59093
417.547	13.69845
417.759	-5.26836
417.972	34.77495
418.185	13.69845
418.397	20.02115
418.61	38.99053
418.823	64.28597
419.035	43.20621
419.248	-11.5902
419.46	-41.08919
419.673	64.28597
419.885	-57.94356
420.098	47.42198
420.311	5.26851
420.523	30.55946
420.736	28.45175
420.948	32.66719
421.161	-7.37567
421.373	64.28597
421.586	-30.55439
421.798	24.2364
422.01	-62.1569
422.223	-60.05024
422.435	-15.80464
422.648	5.26851
422.86	41.09836
423.073	1.05369
423.285	26.34407
423.497	51.63784
423.71	30.55946
423.922	-41.08919
424.134	34.77495
424.347	26.34407
424.559	-45.30293
424.771	28.45175
424.984	64.28597
425.196	5.26851
425.408	-20.01897
425.621	-7.37567
425.833	22.12877
426.045	-20.01897
426.257	13.69845
426.47	1.05369
426.682	60.06984
426.894	5.26851
427.106	76.93493
427.318	30.55946
427.531	-15.80464
427.743	-20.01897
427.955	-20.01897
428.167	-22.12611
428.379	-36.87534
428.591	-32.6614
428.804	64.28597
429.016	-3.16104
429.228	57.9618
429.44	1.05369
429.652	47.42198
429.864	30.55946
430.076	28.45175
430.288	47.42198
430.5	17.91356
430.712	24.2364
430.924	51.63784
431.136	30.55946
431.348	62.17789
431.56	-28.44736
431.772	30.55946
431.984	76.93493
432.196	72.71852
432.408	11.59093
432.62	-17.91182
432.832	32.66719
433.044	-7.37567
433.256	32.66719
433.468	26.34407
433.679	43.20621
433.891	-28.44736
434.103	9.48343
434.315	-32.6614
434.527	-11.5902
434.739	-26.3403
434.95	-3.16104
435.162	1.05369
435.374	-7.37567
435.586	7.37596
435.798	64.28597
436.009	13.69845
436.221	-7.37567
436.433	38.99053
436.645	7.37596
436.856	26.34407
437.068	9.48343
437.28	81.15143
437.491	41.09836
437.703	32.66719
437.915	5.26851
438.126	-17.91182
438.338	87.47635
438.55	-17.91182
438.761	43.20621
438.973	47.42198
439.184	5.26851
439.396	-1.05368
439.608	-5.26836
439.819	-36.87534
440.031	-62.1569
440.242	-28.44736
440.454	43.20621
440.665	30.55946
440.877	-34.76838
441.088	-36.87534
441.3	32.66719
441.511	-38.98228
441.723	28.45175
441.934	13.69845
442.146	22.12877
442.357	-41.08919
442.569	-36.87534
442.78	47.42198
442.991	5.26851
443.203	1.05369
443.414	-76.90279
443.626	-43.19607
443.837	32.66719
444.048	-28.44736
444.26	15.80599
444.471	15.80599
444.682	-30.55439
444.894	5.26851
445.105	-45.30293
445.316	-5.26836
445.528	30.55946
445.739	9.48343
445.95	-55.83685
446.161	13.69845
446.373	-9.48295
446.584	-47.40976
446.795	-26.3403
447.006	15.80599
447.217	49.5299
447.429	-7.37567
447.64	32.66719
447.851	49.5299
448.062	-28.44736
448.273	-3.16104
448.484	108.56086
448.695	7.37596
448.907	5.26851
449.118	1.05369
449.329	66.39408
449.54	66.39408
449.751	13.69845
449.962	-13.69743
450.173	-7.37567
450.384	47.42198
450.595	74.82672
450.806	47.42198
451.017	41.09836
451.228	-38.98228
451.439	49.5299
451.65	98.01833
451.861	-49.51657
452.072	5.26851
452.283	93.80147
452.494	26.34407
452.705	38.99053
452.915	43.20621
453.126	98.01833
453.337	38.99053
453.548	116.99528
453.759	13.69845
453.97	64.28597
454.181	60.06984
454.391	20.02115
454.602	-11.5902
454.813	36.88273
455.024	22.12877
455.235	38.99053
455.445	106.45231
455.656	74.82672
455.867	9.48343
456.078	-11.5902
456.288	38.99053
456.499	-3.16104
456.71	41.09836
456.921	47.42198
457.131	41.09836
457.342	89.5847
457.553	-36.87534
457.763	45.31408
457.974	-36.87534
458.184	30.55946
458.395	-74.79631
458.606	7.37596
458.816	5.26851
459.027	22.12877
459.237	60.06984
459.448	22.12877
459.659	32.66719
459.869	72.71852
460.08	-20.01897
460.29	43.20621
460.501	68.5022
460.711	11.59093
460.922	9.48343
461.132	74.82672
461.343	17.91356
461.553	-7.37567
461.764	-28.44736
461.974	13.69845
462.184	-1.05368
462.395	32.66719
462.605	38.99053
462.816	34.77495
463.026	-13.69743
463.236	116.99528
463.447	32.66719
463.657	-3.16104
463.867	7.37596
464.078	72.71852
464.288	5.26851
464.498	47.42198
464.709	5.26851
464.919	47.42198
465.129	-3.16104
465.339	64.28597
465.55	32.66719
465.76	32.66719
465.97	26.34407
466.18	11.59093
466.391	5.26851
466.601	47.42198
466.811	-3.16104
467.021	45.31408
467.231	41.09836
467.441	-34.76838
467.651	55.85379
467.862	55.85379
468.072	-20.01897
468.282	49.5299
468.492	1.05369
468.702	83.25972
468.912	-57.94356
469.122	-24.23321
469.332	-28.44736
469.542	47.42198
469.752	-11.5902
469.962	47.42198
470.172	-76.90279
470.382	13.69845
470.592	57.9618
470.802	13.69845
471.012	-22.12611
471.222	17.91356
471.432	47.42198
471.642	13.69845
471.852	32.66719
472.062	43.20621
472.272	-26.3403
472.482	-28.44736
472.691	13.69845
472.901	140.19172
473.111	22.12877
473.321	34.77495
473.531	-60.05024
473.741	-20.01897
473.95	38.99053
474.16	9.48343
474.37	13.69845
474.58	76.93493
474.79	9.48343
474.999	74.82672
475.209	-68.47672
475.419	22.12877
475.628	51.63784
475.838	-17.91182
476.048	22.12877
476.258	64.28597
476.467	5.26851
476.677	-36.87534
476.886	49.5299
477.096	-57.94356
477.306	38.99053
477.515	-1.05368
477.725	38.99053
477.935	9.48343
478.144	41.09836
478.354	45.31408
478.563	49.5299
478.773	51.63784
478.982	30.55946
479.192	-51.62336
479.401	26.34407
479.611	-1.05368
479.82	-45.30293
480.03	26.34407
480.239	26.34407
480.449	-57.94356
480.658	32.66719
480.868	66.39408
481.077	22.12877
481.287	20.02115
481.496	-41.08919
481.705	85.36802
481.915	26.34407
482.124	-7.37567
482.333	-24.23321
482.543	81.15143
482.752	-20.01897
482.961	47.42198
483.171	-7.37567
483.38	38.99053
483.589	34.77495
483.799	1.05369
484.008	43.20621
484.217	60.06984
484.426	74.82672
484.636	24.2364
484.845	-3.16104
485.054	7.37596
485.263	55.85379
485.472	95.90989
485.682	-7.37567
485.891	49.5299
486.1	-7.37567
486.309	-28.44736
486.518	5.26851
486.727	24.2364
486.936	15.80599
487.146	106.45231
487.355	-66.37014
487.564	55.85379
487.773	-3.16104
487.982	7.37596
488.191	-32.6614
488.4	38.99053
488.609	72.71852
488.818	45.31408
489.027	9.48343
489.236	-5.26836
489.445	66.39408
489.654	30.55946
489.863	47.42198
490.072	-34.76838
490.281	-36.87534
490.49	5.26851
490.698	5.26851
490.907	13.69845
491.116	-13.69743
491.325	-43.19607
491.534	60.06984
491.743	55.85379
491.952	1.05369
492.16	34.77495
492.369	17.91356
492.578	13.69845
492.787	49.5299
492.996	32.66719
493.204	-15.80464
493.413	1.05369
493.622	13.69845
493.831	-53.73012
494.039	-36.87534
494.248	5.26851
494.457	57.9618
494.665	7.37596
494.874	-49.51657
495.083	9.48343
495.291	5.26851
495.5	24.2364
495.709	5.26851
495.917	119.10394
496.126	13.69845
496.335	-15.80464
496.543	34.77495
496.752	93.80147
496.96	55.85379
497.169	20.02115
497.377	-11.5902
497.586	74.82672
497.794	-11.5902
498.003	60.06984
498.211	38.99053
498.42	-32.6614
498.628	32.66719
498.837	-43.19607
499.045	9.48343
499.254	32.66719
499.462	30.55946
499.671	41.09836
499.879	55.85379
500.087	1.05369
500.296	-11.5902
500.504	66.39408
500.713	1.05369
500.921	93.80147
501.129	74.82672
501.338	-3.16104
501.546	47.42198
501.754	13.69845
501.962	47.42198
502.171	22.12877
502.379	66.39408
502.587	64.28597
502.795	-7.37567
503.004	81.15143
503.212	11.59093
503.42	15.80599
503.628	26.34407
503.837	20.02115
504.045	55.85379
504.253	-3.16104
504.461	60.06984
504.669	26.34407
504.877	5.26851
505.085	55.85379
505.294	64.28597
505.502	17.91356
505.71	-26.3403
505.918	5.26851
506.126	51.63784
506.334	55.85379
506.542	-7.37567
506.75	72.71852
506.958	17.91356
507.166	-26.3403
507.374	7.37596
507.582	-20.01897
507.79	41.09836
507.998	38.99053
508.206	-51.62336
508.414	68.5022
508.622	45.31408
508.83	-36.87534
509.037	49.5299
509.245	81.15143
509.453	-22.12611
509.661	38.99053
509.869	55.85379
510.077	38.99053
510.285	30.55946
510.492	24.2364
510.7	49.5299
510.908	49.5299
511.116	13.69845
511.324	55.85379
511.531	3.16109
511.739	30.55946
511.947	-11.5902
512.155	51.63784
512.362	34.77495
512.57	-11.5902
512.778	17.91356
512.985	3.16109
513.193	17.91356
513.401	74.82672
513.608	-7.37567
513.816	-53.73012
514.024	-15.80464
514.231	55.85379
514.439	38.99053
514.646	81.15143
514.854	1.05369
515.061	104.34378
515.269	47.42198
515.477	15.80599
515.684	64.28597
515.892	89.5847
516.099	13.69845
516.307	-11.5902
516.514	57.9618
516.722	60.06984
516.929	38.99053
517.136	100.12679
517.344	34.77495
517.551	72.71852
517.759	116.99528
517.966	-24.23321
518.173	60.06984
518.381	70.61035
518.588	72.71852
518.796	38.99053
519.003	91.69308
519.21	85.36802
519.418	34.77495
519.625	32.66719
519.832	68.5022
520.039	62.17789
520.247	55.85379
520.454	-9.48295
520.661	13.69845
520.868	116.99528
521.076	28.45175
521.283	64.28597
521.49	51.63784
521.697	13.69845
521.904	-5.26836
522.112	114.88664
522.319	91.69308
522.526	98.01833
522.733	60.06984
522.94	102.23527
523.147	36.88273
523.354	62.17789
523.561	81.15143
523.768	98.01833
523.975	1.05369
524.183	-3.16104
524.39	-9.48295
524.597	45.31408
524.804	49.5299
525.011	55.85379
525.218	-5.26836
525.425	62.17789
525.632	70.61035
525.838	-24.23321
526.045	38.99053
526.252	81.15143
526.459	34.77495
526.666	74.82672
526.873	-34.76838
527.08	51.63784
527.287	38.99053
527.494	47.42198
527.701	30.55946
527.907	68.5022
528.114	47.42198
528.321	83.25972
528.528	55.85379
528.735	17.91356
528.941	55.85379
529.148	34.77495
529.355	93.80147
529.562	49.5299
529.768	89.5847
529.975	22.12877
530.182	-5.26836
530.388	60.06984
530.595	13.69845
530.802	66.39408
531.008	24.2364
531.215	83.25972
531.422	5.26851
531.628	13.69845
531.835	91.69308
532.042	55.85379
532.248	30.55946
532.455	30.55946
532.661	55.85379
532.868	66.39408
533.074	49.5299
533.281	55.85379
533.487	125.43005
533.694	100.12679
533.9	47.42198
534.107	57.9618
534.313	24.2364
534.52	79.04317
534.726	110.66943
534.933	74.82672
535.139	28.45175
535.345	45.31408
535.552	89.5847
535.758	47.42198
535.965	72.71852
536.171	55.85379
536.377	30.55946
536.584	15.80599
536.79	133.86516
536.996	47.42198
537.203	98.01833
537.409	85.36802
537.615	43.20621
537.821	51.63784
538.028	123.32132
538.234	85.36802
538.44	41.09836
538.646	5.26851
538.853	26.34407
539.059	68.5022
539.265	116.99528
539.471	83.25972
539.677	98.01833
539.883	41.09836
540.09	64.28597
540.296	36.88273
540.502	45.31408
540.708	55.85379
540.914	-9.48295
541.12	57.9618
541.326	-34.76838
541.532	30.55946
541.738	98.01833
541.944	30.55946
542.15	131.75635
542.356	-1.05368
542.562	17.91356
542.768	114.88664
542.974	3.16109
543.18	72.71852
543.386	93.80147
543.592	64.28597
543.798	55.85379
544.004	102.23527
544.21	66.39408
544.415	13.69845
544.621	9.48343
544.827	13.69845
545.033	55.85379
545.239	41.09836
545.445	26.34407
545.651	91.69308
545.856	81.15143
546.062	55.85379
546.268	7.37596
546.474	74.82672
546.679	22.12877
546.885	74.82672
547.091	81.15143
547.297	89.5847
547.502	131.75635
547.708	47.42198
547.914	34.77495
548.119	30.55946
548.325	106.45231
548.531	93.80147
548.736	98.01833
548.942	74.82672
549.147	76.93493
549.353	32.66719
549.559	49.5299
549.764	13.69845
549.97	47.42198
550.175	43.20621
550.381	98.01833
550.586	83.25972
550.792	66.39408
550.997	74.82672
551.203	70.61035
551.408	74.82672
551.614	60.06984
551.819	110.66943
552.025	93.80147
552.23	108.56086
552.435	34.77495
552.641	74.82672
552.846	76.93493
553.052	112.77803
553.257	85.36802
553.462	49.5299
553.668	55.85379
553.873	64.28597
554.078	66.39408
554.283	178.15507
554.489	22.12877
554.694	72.71852
554.899	98.01833
555.105	55.85379
555.31	110.66943
555.515	91.69308
555.72	83.25972
555.925	133.86516
556.131	93.80147
556.336	43.20621
556.541	81.15143
556.746	102.23527
556.951	100.12679
557.156	28.45175
557.361	123.32132
557.567	123.32132
557.772	140.19172
557.977	72.71852
558.182	100.12679
558.387	41.09836
558.592	81.15143
558.797	199.24872
559.002	81.15143
559.207	106.45231
559.412	100.12679
559.617	125.43005
559.822	173.93659
560.027	119.10394
560.232	32.66719
560.437	30.55946
560.642	100.12679
560.847	108.56086
561.051	30.55946
561.256	89.5847
561.461	176.04582
561.666	-5.26836
561.871	38.99053
562.076	140.19172
562.281	85.36802
562.485	93.80147
562.69	47.42198
562.895	106.45231
563.1	116.99528
563.305	72.71852
563.509	106.45231
563.714	163.39074
563.919	102.23527
564.123	131.75635
564.328	72.71852
564.533	157.06349
564.737	110.66943
564.942	106.45231
565.147	85.36802
565.351	81.15143
565.556	100.12679
565.761	159.17255
565.965	89.5847
566.17	110.66943
566.374	81.15143
566.579	49.5299
566.784	100.12679
566.988	47.42198
567.193	131.75635
567.397	81.15143
567.602	81.15143
567.806	93.80147
568.011	127.53879
568.215	74.82672
568.42	142.30062
568.624	123.32132
568.828	106.45231
569.033	203.46769
569.237	116.99528
569.442	114.88664
569.646	81.15143
569.85	91.69308
570.055	106.45231
570.259	102.23527
570.463	57.9618
570.668	62.17789
570.872	116.99528
571.076	192.92041
571.281	123.32132
571.485	176.04582
571.689	76.93493
571.893	98.01833
572.098	76.93493
572.302	106.45231
572.506	131.75635
572.71	116.99528
572.914	140.19172
573.119	38.99053
573.323	60.06984
573.527	140.19172
573.731	24.2364
573.935	123.32132
574.139	144.40954
574.343	76.93493
574.547	131.75635
574.751	127.53879
574.955	123.32132
575.159	125.43005
575.364	131.75635
575.568	140.19172
575.772	123.32132
575.976	93.80147
576.18	106.45231
576.383	140.19172
576.587	195.02983
576.791	74.82672
576.995	89.5847
577.199	131.75635
577.403	178.15507
577.607	125.43005
577.811	142.30062
578.015	169.71819
578.219	161.28164
578.422	182.37364
578.626	110.66943
578.83	72.71852
579.034	110.66943
579.238	123.32132
579.442	195.02983
579.645	182.37364
579.849	180.26435
580.053	159.17255
580.257	102.23527
580.46	178.15507
580.664	154.95444
580.868	173.93659
581.071	53.7458
581.275	68.5022
581.479	131.75635
581.682	142.30062
581.886	182.37364
582.09	150.73642
582.293	60.06984
582.497	152.84542
582.7	182.37364
582.904	176.04582
583.107	199.24872
583.311	114.88664
583.515	220.34438
583.718	142.30062
583.922	108.56086
584.125	207.68674
584.329	135.97399
584.532	226.67346
584.735	171.82738
584.939	165.49987
585.142	173.93659
585.346	150.73642
585.549	169.71819
585.753	195.02983
585.956	178.15507
586.159	201.3582
586.363	89.5847
586.566	176.04582
586.769	190.81102
586.973	270.98194
587.176	169.71819
587.379	209.7963
587.582	182.37364
587.786	216.12509
587.989	167.60902
588.192	157.06349
588.395	235.11252
588.599	216.12509
588.802	173.93659
589.005	150.73642
589.208	176.04582
589.411	190.81102
589.615	169.71819
589.818	163.39074
590.021	152.84542
590.224	180.26435
590.427	190.81102
590.63	275.20224
590.833	201.3582
591.036	266.76173
591.239	186.59229
591.442	197.13926
591.645	237.22233
591.848	230.89295
592.051	169.71819
592.254	188.70164
592.457	176.04582
592.66	178.15507
592.863	199.24872
593.066	192.92041
593.269	245.66178
593.472	199.24872
593.675	157.06349
593.878	224.56375
594.081	283.64305
594.284	203.46769
594.486	188.70164
594.689	186.59229
594.892	224.56375
595.095	157.06349
595.298	178.15507
595.5	228.7832
595.703	251.99156
595.906	211.90588
596.109	228.7832
596.311	258.32152
596.514	275.20224
596.717	283.64305
596.92	254.10153
597.122	203.46769
597.325	262.54158
597.528	277.31241
597.73	262.54158
597.933	207.68674
598.136	275.20224
598.338	247.77168
598.541	226.67346
598.743	228.7832
598.946	275.20224
599.148	283.64305
599.351	245.66178
599.554	292.08415
599.756	216.12509
599.959	243.55189
600.161	292.08415
600.363	239.33216
600.566	302.63595
600.768	157.06349
600.971	199.24872
601.173	235.11252
601.376	311.07772
601.578	184.48295
601.78	327.96211
601.983	224.56375
602.185	241.44201
602.388	270.98194
602.59	207.68674
602.792	363.84518
602.995	311.07772
603.197	277.31241
603.399	224.56375
603.601	281.53282
603.804	296.30482
604.006	233.00273
604.208	351.18
604.41	353.29082
604.613	308.96725
604.815	275.20224
605.017	325.8515
605.219	300.52556
605.421	235.11252
605.623	237.22233
605.826	279.42261
606.028	266.76173
606.23	317.40923
606.432	300.52556
606.634	359.62338
606.836	294.19448
607.038	302.63595
607.24	283.64305
607.442	319.51977
607.644	355.40166
607.846	351.18
608.048	233.00273
608.25	325.8515
608.452	270.98194
608.654	346.9584
608.856	211.90588
609.058	323.7409
609.26	296.30482
609.462	313.1882
609.664	243.55189
609.866	327.96211
610.067	387.06628
610.269	397.62199
610.471	283.64305
610.673	395.51081
610.875	406.06685
611.077	300.52556
611.278	359.62338
611.48	437.73739
611.682	334.29405
611.884	422.95736
612.085	311.07772
612.287	420.84599
612.489	294.19448
612.69	384.95518
612.892	323.7409
613.094	283.64305
613.295	323.7409
613.497	353.29082
613.699	342.73688
613.9	351.18
614.102	359.62338
614.304	344.84764
614.505	235.11252
614.707	397.62199
614.908	344.84764
615.11	338.51543
615.311	334.29405
615.513	418.73464
615.714	374.39997
615.916	444.07193
616.117	325.8515
616.319	363.84518
616.52	393.39965
616.722	387.06628
616.923	355.40166
617.124	450.40661
617.326	393.39965
617.527	285.7533
617.729	327.96211
617.93	410.28938
618.131	319.51977
618.333	387.06628
618.534	384.95518
618.735	355.40166
618.937	351.18
619.138	463.07638
619.339	344.84764
619.54	416.6233
619.742	418.73464
619.943	361.73427
620.144	389.17739
620.345	319.51977
620.546	399.73318
620.748	384.95518
620.949	406.06685
621.15	410.28938
621.351	384.95518
621.552	353.29082
621.753	349.06919
621.954	422.95736
622.155	264.65165
622.356	422.95736
622.558	401.84439
622.759	452.5182
622.96	357.51251
623.161	420.84599
623.362	353.29082
623.563	469.41147
623.764	429.29157
623.965	418.73464
624.166	336.40473
624.366	346.9584
624.567	376.51098
624.768	520.09701
624.969	308.96725
625.17	393.39965
625.371	427.18015
625.572	378.62201
625.773	427.18015
625.973	406.06685
626.174	429.29157
626.375	460.96471
626.576	365.95611
626.777	389.17739
626.977	313.1882
627.178	439.84889
627.379	465.18806
627.58	460.96471
627.78	429.29157
627.981	387.06628
628.182	515.8729
628.382	463.07638
628.583	479.97025
628.784	536.99404
628.984	420.84599
629.185	422.95736
629.386	401.84439
629.586	566.56597
629.787	418.73464
629.987	513.76086
630.188	513.76086
630.388	608.81612
630.589	382.84411
630.79	490.52941
630.99	317.40923
631.191	471.52319
631.391	387.06628
631.591	399.73318
631.792	473.63494
631.992	490.52941
632.193	503.20089
632.393	505.31286
632.594	477.85847
632.794	479.97025
632.994	482.08206
633.195	446.18347
633.395	484.19387
633.595	547.55513
633.796	446.18347
633.996	530.65755
634.196	496.86509
634.397	583.4654
634.597	536.99404
634.797	536.99404
634.997	503.20089
635.198	604.59088
635.398	475.74669
635.598	581.35293
635.798	513.76086
635.998	528.54541
636.199	454.6298
636.399	572.90316
636.599	507.42484
636.799	543.33065
636.999	458.85306
637.199	547.55513
637.399	547.55513
637.599	505.31286
637.799	446.18347
637.999	572.90316
638.199	549.6674
638.399	503.20089
638.599	528.54541
638.799	579.24047
638.999	524.32118
639.199	589.80291
639.399	566.56597
639.599	640.50708
639.799	507.42484
639.999	562.34125
640.199	517.98495
640.399	731.36923
640.599	511.64884
640.799	536.99404
640.998	566.56597
641.198	623.60489
641.398	553.89196
641.598	646.84561
641.798	553.89196
641.997	598.2531
642.197	575.01558
642.397	769.41055
642.597	511.64884
642.796	657.41006
642.996	530.65755
643.196	646.84561
643.395	594.02798
643.595	549.6674
643.795	625.71762
643.994	674.31378
644.194	587.69039
644.394	725.02935
644.593	642.61991
644.793	629.94312
644.992	632.05589
645.192	655.29714
645.392	570.79075
645.591	765.18357
645.791	587.69039
645.99	608.81612
646.19	676.4268
646.389	602.47827
646.589	583.4654
646.788	536.99404
646.987	632.05589
647.187	697.55762
647.386	606.70349
647.586	744.0493
647.785	646.84561
647.984	627.83037
648.184	604.59088
648.383	653.18424
648.582	659.52298
648.782	727.14263
648.981	530.65755
649.18	682.76593
649.38	678.53983
649.579	771.52405
649.778	653.18424
649.977	655.29714
650.177	763.0701
650.376	693.33136
650.575	608.81612
650.774	729.25593
650.973	646.84561
651.173	729.25593
651.372	682.76593
651.571	769.41055
651.77	621.49217
651.969	820.1373
652.168	646.84561
652.367	758.84318
652.566	596.14053
652.765	741.93593
652.964	718.68955
653.163	686.99207
653.362	682.76593
653.561	676.4268
653.76	756.72974
653.959	782.09171
654.158	739.82257
654.357	765.18357
654.556	733.48255
654.755	790.54602
654.954	651.07135
655.153	731.36923
655.352	638.39427
655.551	763.0701
655.749	617.26677
655.948	744.0493
656.147	775.75109
656.346	788.43243
656.545	737.70922
656.743	868.75541
656.942	760.95663
657.141	837.04742
657.34	731.36923
657.538	860.29975
657.737	765.18357
657.936	889.89512
658.135	676.4268
658.333	739.82257
658.532	786.31885
658.731	832.81983
658.929	682.76593
659.128	921.6062
659.326	773.63756
659.525	875.09723
659.724	775.75109
659.922	866.64148
660.121	686.99207
660.319	786.31885
660.518	680.65288
660.716	818.02358
660.915	731.36923
661.113	752.50288
661.312	843.38886
661.51	883.55312
661.709	722.91607
661.907	801.11412
662.105	765.18357
662.304	841.27503
662.502	860.29975
662.701	917.37796
662.899	701.78392
663.097	919.49208
663.296	716.57631
663.494	803.22777
663.692	775.75109
663.891	784.20528
664.089	672.20078
664.287	727.14263
664.485	689.10516
664.684	887.78111
664.882	799.00048
665.08	902.57934
665.278	849.73038
665.476	841.27503
665.675	807.4551
665.873	892.00914
666.071	767.29705
666.269	968.11884
666.467	805.34143
666.665	906.80748
666.863	811.68246
667.061	976.57604
667.259	708.12345
667.457	864.52756
667.655	820.1373
667.853	898.35124
668.051	809.56877
668.249	921.6062
668.447	837.04742
668.645	824.36477
668.843	809.56877
669.041	961.776
669.239	843.38886
669.437	946.9763
669.635	837.04742
669.833	993.49078
670.031	911.03565
670.229	879.32516
670.426	748.27607
670.624	858.18586
670.822	818.02358
671.02	769.41055
671.218	809.56877
671.415	917.37796
671.613	858.18586
671.811	775.75109
672.009	714.46308
672.206	913.14974
672.404	794.77323
672.602	1107.67528
672.799	989.26206
672.997	963.89027
673.195	908.92156
673.392	849.73038
673.59	915.26385
673.788	900.46529
673.985	799.00048
674.183	978.69036
674.38	841.27503
674.578	951.20475
674.775	803.22777
674.973	934.29112
675.17	904.69341
675.368	1065.38284
675.565	885.66711
675.763	908.92156
675.96	919.49208
676.158	1027.32149
676.355	830.70605
676.553	866.64148
676.75	771.52405
676.947	976.57604
677.145	970.23313
677.342	995.60516
677.539	885.66711
677.737	987.14771
677.934	796.88685
678.131	1046.35194
678.329	834.93362
678.526	1128.82223
678.723	936.4053
678.92	925.83448
679.118	851.84424
679.315	968.11884
679.512	858.18586
679.709	930.06278
679.906	824.36477
680.104	978.69036
680.301	904.69341
680.498	896.2372
680.695	951.20475
680.892	898.35124
681.089	818.02358
681.286	980.80469
681.483	779.97816
681.68	936.4053
681.877	841.27503
682.075	1018.86366
682.272	847.61653
682.469	936.4053
682.665	799.00048
682.862	1078.07036
683.059	849.73038
683.256	985.03336
683.453	936.4053
683.65	942.74787
683.847	976.57604
684.044	1033.66492
684.241	908.92156
684.438	1006.17711
684.635	889.89512
684.831	1054.81006
685.028	911.03565
685.225	1010.40594
685.422	934.29112
685.619	1086.52881
685.815	1016.74922
686.012	989.26206
686.209	946.9763
686.405	1046.35194
686.602	773.63756
686.799	959.66174
686.996	843.38886
687.192	1035.77941
687.389	851.84424
687.586	942.74787
687.782	953.31898
687.979	1071.72658
688.175	927.94863
688.372	1107.67528
688.568	799.00048
688.765	870.86934
688.962	786.31885
689.158	849.73038
689.355	925.83448
689.551	980.80469
689.748	843.38886
689.944	944.86208
690.14	925.83448
690.337	1139.39587
690.533	866.64148
690.73	875.09723
690.926	756.72974
691.123	934.29112
691.319	885.66711
691.515	936.4053
691.712	879.32516
691.908	885.66711
692.104	997.71953
692.301	1046.35194
692.497	902.57934
692.693	1012.52036
692.889	841.27503
693.086	845.50269
693.282	851.84424
693.478	936.4053
693.674	870.86934
693.87	1065.38284
694.067	970.23313
694.263	917.37796
694.459	841.27503
694.655	1029.43596
694.851	841.27503
695.047	1004.06271
695.243	885.66711
695.439	985.03336
695.635	858.18586
695.831	980.80469
696.027	925.83448
696.224	985.03336
696.42	942.74787
696.615	1018.86366
696.811	870.86934
697.007	951.20475
697.203	843.38886
697.399	1059.03916
697.595	849.73038
697.791	896.2372
697.987	853.9581
698.183	1086.52881
698.379	942.74787
698.575	995.60516
698.77	832.81983
698.966	1023.09256
699.162	792.65962
699.358	1027.32149
699.554	845.50269
699.749	978.69036
699.945	1018.86366
700.141	866.64148
700.337	921.6062
700.532	970.23313
700.728	858.18586
700.924	1029.43596
701.119	792.65962
701.315	968.11884
701.511	908.92156
701.706	1065.38284
701.902	980.80469
702.097	987.14771
702.293	968.11884
702.489	1073.84117
702.684	1094.98734
702.88	1020.97811
703.075	915.26385
703.271	951.20475
703.466	1001.94831
703.662	1207.06958
703.857	1018.86366
704.053	1052.69552
704.248	953.31898
704.443	1052.69552
704.639	1010.40594
704.834	959.66174
705.03	959.66174
705.225	1090.75806
705.42	953.31898
705.616	1044.23742
705.811	782.09171
706.006	993.49078
706.202	963.89027
706.397	951.20475
706.592	915.26385
706.787	1001.94831
706.983	908.92156
707.178	917.37796
707.373	911.03565
707.568	1037.8939
707.763	900.46529
707.959	951.20475
708.154	934.29112
708.349	1046.35194
708.544	879.32516
708.739	875.09723
708.934	919.49208
709.129	982.91902
709.324	832.81983
709.519	925.83448
709.714	968.11884
709.909	1162.65826
710.104	883.55312
710.299	1001.94831
710.494	942.74787
710.689	1018.86366
710.884	1099.21663
711.079	993.49078
711.274	826.47853
711.469	1006.17711
711.664	972.34743
711.859	1029.43596
712.054	902.57934
712.249	1086.52881
712.443	887.78111
712.638	1016.74922
712.833	1031.55043
713.028	1120.3634
713.223	834.93362
713.417	970.23313
713.612	875.09723
713.807	1010.40594
714.002	963.89027
714.196	1040.0084
714.391	807.4551
714.586	902.57934
714.78	995.60516
714.975	995.60516
715.17	955.43323
715.364	1037.8939
715.559	976.57604
715.754	1090.75806
715.948	959.66174
716.143	1124.5928
716.337	896.2372
716.532	993.49078
716.726	856.07198
716.921	1052.69552
717.115	860.29975
717.31	976.57604
717.504	908.92156
717.699	1103.44595
717.893	959.66174
718.088	1050.58099
718.282	915.26385
718.476	1084.41419
718.671	894.12316
718.865	1016.74922
719.059	853.9581
719.254	997.71953
719.448	828.59229
719.642	1063.26828
719.837	875.09723
720.031	883.55312
720.225	900.46529
720.419	976.57604
720.614	801.11412
720.808	987.14771
721.002	828.59229
721.196	963.89027
721.39	877.21119
721.585	946.9763
721.779	968.11884
721.973	902.57934
722.167	843.38886
722.361	934.29112
722.555	773.63756
722.749	866.64148
722.943	663.74887
723.137	818.02358
723.331	769.41055
723.525	1040.0084
723.719	735.59588
723.913	883.55312
724.107	879.32516
724.301	921.6062
724.495	887.78111
724.689	803.22777
724.883	887.78111
725.077	853.9581
725.271	883.55312
725.465	934.29112
725.659	841.27503
725.853	961.776
726.046	801.11412
726.24	978.69036
726.434	921.6062
726.628	875.09723
726.822	913.14974
727.015	1006.17711
727.209	989.26206
727.403	1027.32149
727.596	883.55312
727.79	942.74787
727.984	809.56877
728.177	1166.88784
728.371	932.17695
728.565	987.14771
728.758	896.2372
728.952	889.89512
729.146	902.57934
729.339	1010.40594
729.533	913.14974
729.726	1078.07036
729.92	841.27503
730.113	927.94863
730.307	849.73038
730.5	989.26206
730.694	946.9763
730.887	913.14974
731.081	853.9581
731.274	961.776
731.468	843.38886
731.661	970.23313
731.854	773.63756
732.048	955.43323
732.241	1040.0084
732.435	1069.612
732.628	908.92156
732.821	993.49078
733.014	913.14974
733.208	995.60516
733.401	985.03336
733.594	1054.81006
733.788	942.74787
733.981	968.11884
734.174	978.69036
734.367	930.06278
734.56	868.75541
734.754	957.54748
734.947	959.66174
735.14	801.11412
735.333	997.71953
735.526	946.9763
735.719	860.29975
735.912	934.29112
736.105	980.80469
736.298	978.69036
736.491	942.74787
736.684	892.00914
736.877	987.14771
737.07	953.31898
737.263	849.73038
737.456	1001.94831
737.649	803.22777
737.842	1044.23742
738.035	860.29975
738.228	953.31898
738.421	938.51948
738.614	1008.29152
738.807	1029.43596
739	1010.40594
739.192	908.92156
739.385	1004.06271
739.578	917.37796
739.771	1012.52036
739.964	805.34143
740.156	917.37796
740.349	733.48255
740.542	1044.23742
740.735	951.20475
740.927	930.06278
741.12	976.57604
741.313	1020.97811
741.505	887.78111
741.698	989.26206
741.891	879.32516
742.083	1004.06271
742.276	881.43914
742.468	985.03336
742.661	953.31898
742.854	913.14974
743.046	989.26206
743.239	1008.29152
743.431	980.80469
743.624	877.21119
743.816	875.09723
744.009	860.29975
744.201	877.21119
744.393	946.9763
744.586	813.79616
744.778	925.83448
744.971	934.29112
745.163	934.29112
745.355	919.49208
745.548	892.00914
745.74	851.84424
745.932	930.06278
746.125	898.35124
746.317	1004.06271
746.509	824.36477
746.702	1023.09256
746.894	968.11884
747.086	1040.0084
747.278	851.84424
747.471	959.66174
747.663	858.18586
747.855	936.4053
748.047	900.46529
748.239	1010.40594
748.431	978.69036
748.623	953.31898
748.815	894.12316
749.008	906.80748
749.2	832.81983
749.392	932.17695
749.584	773.63756
749.776	959.66174
749.968	822.25103
750.16	1162.65826
750.352	976.57604
750.544	875.09723
750.736	879.32516
750.928	925.83448
751.12	904.69341
751.311	860.29975
751.503	896.2372
751.695	885.66711
751.887	790.54602
752.079	959.66174
752.271	853.9581
752.463	911.03565
752.654	784.20528
752.846	993.49078
753.038	892.00914
753.23	925.83448
753.421	925.83448
753.613	946.9763
753.805	908.92156
753.997	892.00914
754.188	925.83448
754.38	875.09723
754.572	799.00048
754.763	811.68246
754.955	792.65962
755.146	843.38886
755.338	917.37796
755.53	754.61631
755.721	841.27503
755.913	951.20475
756.104	796.88685
756.296	921.6062
756.487	794.77323
756.679	902.57934
756.87	849.73038
757.062	769.41055
757.253	908.92156
757.445	845.50269
757.636	911.03565
757.827	875.09723
758.019	860.29975
758.21	809.56877
758.401	794.77323
758.593	985.03336
758.784	828.59229
758.975	944.86208
759.167	862.41365
759.358	925.83448
759.549	868.75541
759.74	995.60516
759.932	837.04742
760.123	841.27503
760.314	908.92156
760.505	921.6062
760.696	822.25103
760.888	837.04742
761.079	756.72974
761.27	908.92156
761.461	792.65962
761.652	739.82257
761.843	790.54602
762.034	858.18586
762.225	786.31885
762.416	807.4551
762.607	744.0493
762.798	779.97816
762.989	782.09171
763.18	860.29975
763.371	815.90986
763.562	799.00048
763.753	832.81983
763.944	830.70605
764.135	790.54602
764.326	881.43914
764.517	799.00048
764.708	815.90986
764.899	784.20528
765.089	744.0493
765.28	805.34143
765.471	851.84424
765.662	682.76593
765.853	754.61631
766.043	629.94312
766.234	756.72974
766.425	756.72974
766.615	722.91607
766.806	701.78392
766.997	729.25593
767.187	608.81612
767.378	722.91607
767.569	680.65288
767.759	773.63756
767.95	682.76593
768.141	744.0493
768.331	803.22777
768.522	784.20528
768.712	716.57631
768.903	794.77323
769.093	689.10516
769.284	771.52405
769.474	598.2531
769.665	670.08778
769.855	589.80291
770.046	792.65962
770.236	680.65288
770.426	667.9748
770.617	691.21826
770.807	714.46308
770.998	731.36923
771.188	646.84561
771.378	706.01026
771.569	756.72974
771.759	701.78392
771.949	661.63592
772.139	657.41006
772.33	655.29714
772.52	583.4654
772.71	672.20078
772.9	627.83037
773.09	661.63592
773.281	663.74887
773.471	722.91607
773.661	691.21826
773.851	733.48255
774.041	720.80281
774.231	765.18357
774.421	575.01558
774.611	615.15409
774.802	549.6674
774.992	653.18424
775.182	682.76593
775.372	623.60489
775.562	615.15409
775.752	784.20528
775.942	562.34125
776.131	739.82257
776.321	623.60489
776.511	562.34125
776.701	577.12802
776.891	646.84561
777.081	596.14053
777.271	617.26677
777.461	722.91607
777.651	756.72974
777.84	720.80281
778.03	604.59088
778.22	604.59088
778.41	596.14053
778.599	657.41006
778.789	701.78392
778.979	682.76593
779.169	600.36568
779.358	579.24047
779.548	659.52298
779.738	602.47827
779.927	657.41006
780.117	570.79075
780.307	634.16867
780.496	460.96471
780.686	623.60489
780.875	513.76086
781.065	758.84318
781.254	539.10623
781.444	575.01558
781.633	524.32118
781.823	583.4654
782.012	498.97701
782.202	503.20089
782.391	602.47827
782.581	469.41147
782.77	492.64129
782.96	572.90316
783.149	513.76086
783.338	623.60489
783.528	613.04142
783.717	629.94312
783.906	564.4536
784.096	606.70349
784.285	513.76086
784.474	621.49217
784.663	553.89196
784.853	581.35293
785.042	589.80291
785.231	613.04142
785.42	545.44289
785.61	598.2531
785.799	594.02798
785.988	467.29976
786.177	496.86509
786.366	536.99404
786.555	479.97025
786.744	539.10623
786.933	530.65755
787.122	488.41755
787.312	477.85847
787.501	486.30571
787.69	439.84889
787.879	517.98495
788.068	511.64884
788.257	589.80291
788.445	615.15409
788.634	570.79075
788.823	570.79075
789.012	541.21844
789.201	528.54541
789.39	591.91544
789.579	477.85847
789.768	575.01558
789.957	463.07638
790.145	427.18015
790.334	515.8729
790.523	511.64884
790.712	520.09701
790.9	570.79075
791.089	460.96471
791.278	562.34125
791.467	545.44289
791.655	463.07638
791.844	543.33065
792.033	471.52319
792.221	486.30571
792.41	562.34125
792.599	463.07638
792.787	509.53683
792.976	503.20089
793.164	505.31286
793.353	435.62591
793.541	522.20909
793.73	456.74142
793.918	471.52319
794.107	403.95561
794.295	460.96471
794.484	427.18015
794.672	496.86509
794.861	520.09701
795.049	581.35293
795.238	536.99404
795.426	422.95736
795.614	458.85306
795.803	477.85847
795.991	353.29082
796.179	393.39965
796.368	460.96471
796.556	427.18015
796.744	469.41147
796.932	454.6298
797.121	321.63033
797.309	408.17811
797.497	496.86509
797.685	513.76086
797.874	435.62591
798.062	522.20909
798.25	325.8515
798.438	414.51198
798.626	401.84439
798.814	503.20089
799.002	418.73464
799.19	448.29503
799.378	496.86509
799.566	435.62591
799.755	376.51098
799.943	431.403
800.131	412.40067
800.318	446.18347
800.506	376.51098
800.694	389.17739
800.882	365.95611
801.07	427.18015
801.258	460.96471
801.446	469.41147
801.634	393.39965
801.822	494.75318
802.01	368.06705
802.197	393.39965
802.385	330.07274
802.573	372.28898
802.761	467.29976
802.949	456.74142
803.136	496.86509
803.324	420.84599
803.512	346.9584
803.699	439.84889
803.887	471.52319
804.075	353.29082
804.262	446.18347
804.45	420.84599
804.638	403.95561
804.825	486.30571
805.013	412.40067
805.201	536.99404
805.388	416.6233
805.576	450.40661
805.763	496.86509
805.951	387.06628
806.138	482.08206
806.326	399.73318
806.513	444.07193
806.701	460.96471
806.888	372.28898
807.075	556.00426
807.263	444.07193
807.45	541.21844
807.638	460.96471
807.825	444.07193
808.012	387.06628
808.2	501.08894
808.387	490.52941
808.574	532.7697
808.761	435.62591
808.949	532.7697
809.136	450.40661
809.323	591.91544
809.51	380.73305
809.698	524.32118
809.885	393.39965
810.072	418.73464
810.259	376.51098
810.446	458.85306
810.633	370.17801
810.82	435.62591
811.008	477.85847
811.195	556.00426
811.382	454.6298
811.569	479.97025
811.756	463.07638
811.943	536.99404
812.13	465.18806
812.317	444.07193
812.504	418.73464
812.691	437.73739
812.878	477.85847
813.064	473.63494
813.251	406.06685
813.438	596.14053
813.625	490.52941
813.812	473.63494
813.999	412.40067
814.186	444.07193
814.372	397.62199
814.559	490.52941
814.746	450.40661
814.933	422.95736
815.12	342.73688
815.306	549.6674
815.493	460.96471
815.68	482.08206
815.866	503.20089
816.053	469.41147
816.24	452.5182
816.426	536.99404
816.613	401.84439
816.799	482.08206
816.986	460.96471
817.173	513.76086
817.359	355.40166
817.546	450.40661
817.732	389.17739
817.919	479.97025
818.105	403.95561
818.292	494.75318
818.478	488.41755
818.665	503.20089
818.851	503.20089
819.037	416.6233
819.224	431.403
819.41	553.89196
819.597	406.06685
819.783	465.18806
819.969	458.85306
820.156	477.85847
820.342	319.51977
820.528	473.63494
820.714	334.29405
820.901	446.18347
821.087	452.5182
821.273	486.30571
821.459	446.18347
821.646	463.07638
821.832	387.06628
822.018	570.79075
822.204	520.09701
822.39	410.28938
822.576	403.95561
822.762	374.39997
822.948	448.29503
823.134	452.5182
823.32	370.17801
823.507	391.28851
823.693	441.9604
823.879	429.29157
824.065	492.64129
824.25	427.18015
824.436	444.07193
824.622	551.77967
824.808	452.5182
824.994	577.12802
825.18	344.84764
825.366	479.97025
825.552	351.18
825.738	452.5182
825.923	342.73688
826.109	444.07193
826.295	384.95518
826.481	412.40067
826.667	427.18015
826.852	376.51098
827.038	460.96471
827.224	494.75318
827.409	368.06705
827.595	401.84439
827.781	351.18
827.966	486.30571
828.152	401.84439
828.338	418.73464
828.523	368.06705
828.709	444.07193
828.894	431.403
829.08	414.51198
829.266	334.29405
829.451	353.29082
829.637	376.51098
829.822	467.29976
830.008	382.84411
830.193	469.41147
830.378	414.51198
830.564	484.19387
830.749	317.40923
830.935	448.29503
831.12	384.95518
831.305	490.52941
831.491	334.29405
831.676	393.39965
831.861	397.62199
832.047	353.29082
832.232	258.32152
832.417	327.96211
832.602	298.41518
832.788	370.17801
832.973	298.41518
833.158	351.18
833.343	420.84599
833.528	370.17801
833.714	336.40473
833.899	336.40473
834.084	311.07772
834.269	283.64305
834.454	363.84518
834.639	376.51098
834.824	330.07274
835.009	450.40661
835.194	287.86356
835.379	330.07274
835.564	270.98194
835.749	304.74637
835.934	262.54158
836.119	237.22233
836.304	334.29405
836.489	338.51543
836.674	365.95611
836.859	359.62338
837.044	342.73688
837.228	325.8515
837.413	325.8515
837.598	418.73464
837.783	378.62201
837.968	368.06705
838.152	380.73305
838.337	372.28898
838.522	332.18339
838.707	359.62338
838.891	275.20224
839.076	355.40166
839.261	325.8515
839.445	357.51251
839.63	327.96211
839.815	340.62615
839.999	298.41518
840.184	353.29082
840.368	275.20224
840.553	412.40067
840.737	393.39965
840.922	338.51543
841.106	209.7963
841.291	270.98194
841.475	275.20224
841.66	302.63595
841.844	317.40923
842.029	292.08415
842.213	365.95611
842.397	264.65165
842.582	209.7963
842.766	214.01547
842.951	321.63033
843.135	327.96211
843.319	349.06919
843.504	296.30482
843.688	308.96725
843.872	332.18339
844.056	359.62338
844.241	325.8515
844.425	203.46769
844.609	292.08415
844.793	361.73427
844.977	368.06705
845.161	342.73688
845.346	317.40923
845.53	235.11252
845.714	365.95611
845.898	241.44201
846.082	283.64305
846.266	281.53282
846.45	296.30482
846.634	207.68674
846.818	355.40166
847.002	300.52556
847.186	243.55189
847.37	203.46769
847.554	277.31241
847.738	188.70164
847.922	270.98194
848.106	195.02983
848.29	249.88161
848.473	216.12509
848.657	258.32152
848.841	308.96725
849.025	233.00273
849.209	241.44201
849.392	260.43154
849.576	275.20224
849.76	233.00273
849.944	268.87183
850.127	308.96725
850.311	192.92041
850.495	275.20224
850.678	140.19172
850.862	283.64305
851.046	243.55189
851.229	260.43154
851.413	176.04582
851.596	241.44201
851.78	249.88161
851.964	237.22233
852.147	251.99156
852.331	266.76173
852.514	237.22233
852.698	220.34438
852.881	245.66178
853.065	308.96725
853.248	235.11252
853.431	323.7409
853.615	218.23472
853.798	254.10153
853.982	262.54158
854.165	283.64305
854.348	173.93659
854.532	283.64305
854.715	148.62743
854.898	235.11252
855.081	262.54158
855.265	220.34438
855.448	201.3582
855.631	211.90588
855.814	123.32132
855.997	220.34438
856.181	178.15507
856.364	207.68674
856.547	190.81102
856.73	211.90588
856.913	228.7832
857.096	195.02983
857.279	216.12509
857.462	254.10153
857.645	161.28164
857.828	241.44201
858.011	182.37364
858.194	245.66178
858.377	131.75635
858.56	254.10153
858.743	173.93659
858.926	146.51847
859.109	203.46769
859.292	195.02983
859.475	148.62743
859.658	228.7832
859.841	140.19172
860.023	258.32152
860.206	178.15507
860.389	199.24872
860.572	192.92041
860.755	182.37364
860.937	89.5847
861.12	190.81102
861.303	165.49987
861.486	125.43005
861.668	123.32132
861.851	247.77168
862.034	165.49987
862.216	173.93659
862.399	133.86516
862.581	119.10394
862.764	258.32152
862.947	165.49987
863.129	216.12509
863.312	190.81102
863.494	140.19172
863.677	165.49987
863.859	125.43005
864.042	220.34438
864.224	102.23527
864.406	233.00273
864.589	150.73642
864.771	203.46769
864.954	157.06349
865.136	121.21262
865.318	165.49987
865.501	112.77803
865.683	188.70164
865.865	169.71819
866.048	201.3582
866.23	173.93659
866.412	173.93659
866.594	131.75635
866.777	173.93659
866.959	171.82738
867.141	192.92041
867.323	146.51847
867.505	163.39074
867.687	190.81102
867.869	89.5847
868.052	125.43005
868.234	121.21262
868.416	125.43005
868.598	184.48295
868.78	135.97399
868.962	119.10394
869.144	169.71819
869.326	161.28164
869.508	216.12509
869.69	159.17255
869.872	176.04582
870.054	116.99528
870.236	89.5847
870.417	165.49987
870.599	190.81102
870.781	110.66943
870.963	116.99528
871.145	176.04582
871.327	114.88664
871.508	116.99528
871.69	140.19172
871.872	106.45231
872.054	176.04582
872.235	140.19172
872.417	89.5847
872.599	203.46769
872.78	133.86516
872.962	133.86516
873.144	157.06349
873.325	89.5847
873.507	190.81102
873.689	180.26435
873.87	207.68674
874.052	207.68674
874.233	157.06349
874.415	157.06349
874.596	140.19172
874.778	165.49987
874.959	140.19172
875.141	140.19172
875.322	76.93493
875.503	144.40954
875.685	165.49987
875.866	176.04582
876.048	161.28164
876.229	114.88664
876.41	182.37364
876.592	176.04582
876.773	131.75635
876.954	102.23527
877.136	95.90989
877.317	176.04582
877.498	159.17255
877.679	131.75635
877.86	131.75635
878.042	140.19172
878.223	140.19172
878.404	173.93659
878.585	127.53879
878.766	98.01833
878.947	163.39074
879.128	159.17255
879.309	55.85379
879.49	81.15143
879.672	209.7963
879.853	83.25972
880.034	190.81102
880.215	91.69308
880.396	76.93493
880.576	127.53879
880.757	235.11252
880.938	152.84542
881.119	180.26435
881.3	119.10394
881.481	167.60902
881.662	98.01833
881.843	167.60902
882.023	135.97399
882.204	127.53879
882.385	91.69308
882.566	138.08285
882.747	38.99053
882.927	112.77803
883.108	127.53879
883.289	207.68674
883.469	165.49987
883.65	131.75635
883.831	133.86516
884.011	266.76173
884.192	178.15507
884.373	64.28597
884.553	106.45231
884.734	222.45405
884.914	140.19172
885.095	216.12509
885.275	116.99528
885.456	144.40954
885.636	72.71852
885.817	205.57721
885.997	116.99528
886.178	169.71819
886.358	127.53879
886.538	186.59229
886.719	157.06349
886.899	173.93659
887.08	140.19172
887.26	207.68674
887.44	173.93659
887.621	89.5847
887.801	110.66943
887.981	178.15507
888.161	110.66943
888.342	199.24872
888.522	165.49987
888.702	108.56086
888.882	186.59229
889.062	106.45231
889.242	133.86516
889.423	106.45231
889.603	131.75635
889.783	224.56375
889.963	167.60902
890.143	159.17255
890.323	150.73642
890.503	116.99528
890.683	131.75635
890.863	157.06349
891.043	131.75635
891.223	233.00273
891.403	142.30062
891.583	211.90588
891.763	148.62743
891.943	199.24872
892.122	173.93659
892.302	148.62743
892.482	199.24872
892.662	131.75635
892.842	184.48295
893.022	192.92041
893.201	157.06349
893.381	100.12679
893.561	144.40954
893.741	93.80147
893.92	106.45231
894.1	146.51847
894.28	146.51847
894.459	121.21262
894.639	112.77803
894.819	127.53879
894.998	144.40954
895.178	167.60902
895.357	152.84542
895.537	81.15143
895.716	57.9618
895.896	70.61035
896.075	150.73642
896.255	116.99528
896.434	131.75635
896.614	182.37364
896.793	127.53879
896.973	93.80147
897.152	167.60902
897.331	102.23527
897.511	171.82738
897.69	98.01833
897.87	186.59229
898.049	131.75635
898.228	123.32132
898.407	127.53879
898.587	127.53879
898.766	180.26435
898.945	108.56086
899.124	55.85379
899.304	135.97399
899.483	79.04317
899.662	184.48295
899.841	142.30062
900.02	178.15507
900.199	173.93659
900.378	148.62743
900.557	165.49987
900.737	127.53879
900.916	108.56086
901.095	114.88664
901.274	55.85379
901.453	100.12679
901.632	127.53879
901.811	106.45231
901.989	106.45231
902.168	38.99053
902.347	116.99528
902.526	87.47635
902.705	135.97399
902.884	127.53879
903.063	66.39408
903.242	57.9618
903.42	108.56086
903.599	110.66943
903.778	159.17255
903.957	150.73642
904.135	106.45231
904.314	-45.30293
904.493	95.90989
904.672	53.7458
904.85	165.49987
905.029	157.06349
905.207	173.93659
905.386	135.97399
905.565	176.04582
905.743	53.7458
905.922	106.45231
906.1	74.82672
906.279	140.19172
906.457	72.71852
906.636	154.95444
906.814	91.69308
906.993	-15.80464
907.171	64.28597
907.35	131.75635
907.528	64.28597
907.707	20.02115
907.885	100.12679
908.063	79.04317
908.242	106.45231
908.42	112.77803
908.598	112.77803
908.777	93.80147
908.955	116.99528
909.133	114.88664
909.311	93.80147
909.49	114.88664
909.668	152.84542
909.846	108.56086
910.024	70.61035
910.202	89.5847
910.38	93.80147
910.559	26.34407
910.737	22.12877
910.915	102.23527
911.093	64.28597
911.271	81.15143
911.449	140.19172
911.627	89.5847
911.805	30.55946
911.983	57.9618
912.161	106.45231
912.339	47.42198
912.517	79.04317
912.695	106.45231
912.872	53.7458
913.05	100.12679
913.228	131.75635
913.406	98.01833
913.584	64.28597
913.762	66.39408
913.939	93.80147
914.117	66.39408
914.295	83.25972
914.473	148.62743
914.65	76.93493
914.828	66.39408
915.006	125.43005
915.184	-11.5902
915.361	38.99053
915.539	114.88664
915.716	74.82672
915.894	106.45231
916.072	100.12679
916.249	74.82672
916.427	76.93493
916.604	140.19172
916.782	135.97399
916.959	24.2364
917.137	140.19172
917.314	138.08285
917.492	100.12679
917.669	121.21262
917.847	178.15507
918.024	72.71852
918.201	22.12877
918.379	114.88664
918.556	127.53879
918.733	60.06984
918.911	9.48343
919.088	133.86516
919.265	79.04317
919.442	41.09836
919.62	100.12679
919.797	72.71852
919.974	15.80599
920.151	116.99528
920.328	190.81102
920.506	142.30062
920.683	81.15143
920.86	72.71852
921.037	38.99053
921.214	83.25972
921.391	64.28597
921.568	83.25972
921.745	47.42198
921.922	30.55946
922.099	129.64756
922.276	102.23527
922.453	110.66943
922.63	68.5022
922.807	74.82672
922.984	108.56086
923.161	26.34407
923.338	47.42198
923.514	83.25972
923.691	49.5299
923.868	57.9618
924.045	22.12877
924.222	64.28597
924.399	72.71852
924.575	150.73642
924.752	85.36802
924.929	119.10394
925.105	55.85379
925.282	53.7458
925.459	28.45175
925.635	24.2364
925.812	81.15143
925.989	57.9618
926.165	7.37596
926.342	-20.01897
926.518	57.9618
926.695	74.82672
926.871	81.15143
927.048	30.55946
927.224	66.39408
927.401	140.19172
927.577	17.91356
927.754	106.45231
927.93	49.5299
928.107	-13.69743
928.283	66.39408
928.459	32.66719
928.636	62.17789
928.812	135.97399
928.988	-32.6614
929.165	72.71852
929.341	43.20621
929.517	87.47635
929.693	76.93493
929.87	76.93493
930.046	133.86516
930.222	98.01833
930.398	64.28597
930.574	5.26851
930.751	64.28597
930.927	81.15143
931.103	116.99528
931.279	32.66719
931.455	55.85379
931.631	51.63784
931.807	123.32132
931.983	51.63784
932.159	55.85379
932.335	5.26851
932.511	24.2364
932.687	108.56086
932.863	72.71852
933.039	41.09836
933.215	60.06984
933.391	87.47635
933.566	72.71852
933.742	17.91356
933.918	91.69308
934.094	66.39408
934.27	64.28597
934.445	70.61035
934.621	57.9618
934.797	-15.80464
934.973	55.85379
935.148	24.2364
935.324	-7.37567
935.5	57.9618
935.675	26.34407
935.851	57.9618
936.027	45.31408
936.202	64.28597
936.378	43.20621
936.553	68.5022
936.729	64.28597
936.904	26.34407
937.08	-62.1569
937.255	41.09836
937.431	64.28597
937.606	-7.37567
937.782	26.34407
937.957	1.05369
938.133	34.77495
938.308	51.63784
938.483	24.2364
938.659	47.42198
938.834	30.55946
939.009	43.20621
939.185	32.66719
939.36	60.06984
939.535	-62.1569
939.71	30.55946
939.886	76.93493
940.061	13.69845
940.236	83.25972
940.411	22.12877
940.586	38.99053
940.761	68.5022
940.937	60.06984
941.112	-1.05368
941.287	7.37596
941.462	64.28597
941.637	91.69308
941.812	72.71852
941.987	55.85379
942.162	24.2364
942.337	7.37596
942.512	74.82672
942.687	22.12877
942.862	148.62743
943.037	-28.44736
943.212	47.42198
943.386	70.61035
943.561	5.26851
943.736	-3.16104
943.911	34.77495
944.086	64.28597
944.26	66.39408
944.435	30.55946
944.61	106.45231
944.785	15.80599
944.959	-15.80464
945.134	57.9618
945.309	89.5847
945.483	-9.48295
945.658	98.01833
945.833	-28.44736
946.007	43.20621
946.182	76.93493
946.357	30.55946
946.531	-20.01897
946.706	79.04317
946.88	60.06984
947.055	9.48343
947.229	5.26851
947.404	-5.26836
947.578	55.85379
947.752	20.02115
947.927	47.42198
948.101	17.91356
948.276	-34.76838
948.45	43.20621
948.624	9.48343
948.799	24.2364
948.973	-3.16104
949.147	-26.3403
949.321	30.55946
949.496	30.55946
949.67	30.55946
949.844	32.66719
950.018	26.34407
950.193	3.16109
950.367	26.34407
950.541	41.09836
950.715	11.59093
950.889	110.66943
951.063	41.09836
951.237	91.69308
951.411	49.5299
951.585	47.42198
951.759	68.5022
951.933	66.39408
952.107	-3.16104
952.281	17.91356
952.455	72.71852
952.629	-38.98228
952.803	-28.44736
952.977	41.09836
953.151	49.5299
953.325	38.99053
953.499	30.55946
953.672	57.9618
953.846	55.85379
954.02	38.99053
954.194	38.99053
954.368	100.12679
954.541	3.16109
954.715	98.01833
954.889	-11.5902
955.062	102.23527
955.236	-11.5902
955.41	51.63784
955.583	20.02115
955.757	60.06984
955.93	49.5299
956.104	17.91356
956.278	-72.68981
956.451	47.42198
956.625	30.55946
956.798	28.45175
956.972	34.77495
957.145	-36.87534
957.319	76.93493
957.492	-26.3403
957.665	15.80599
957.839	-24.23321
958.012	5.26851
958.185	98.01833
958.359	9.48343
958.532	66.39408
958.705	72.71852
958.879	72.71852
959.052	30.55946
959.225	-7.37567
959.398	-3.16104
959.572	-36.87534
959.745	-32.6614
959.918	-34.76838
960.091	38.99053
960.264	38.99053
960.438	-34.76838
960.611	22.12877
960.784	-26.3403
960.957	76.93493
961.13	81.15143
961.303	24.2364
961.476	38.99053
961.649	70.61035
961.822	30.55946
961.995	41.09836
962.168	38.99053
962.341	-32.6614
962.514	32.66719
962.686	49.5299
962.859	5.26851
963.032	7.37596
963.205	22.12877
963.378	89.5847
963.551	43.20621
963.723	-17.91182
963.896	68.5022
964.069	15.80599
964.242	41.09836
964.414	60.06984
964.587	30.55946
964.76	64.28597
964.932	-9.48295
965.105	57.9618
965.278	-11.5902
965.45	70.61035
965.623	32.66719
965.795	-15.80464
965.968	24.2364
966.14	-1.05368
966.313	47.42198
966.485	17.91356
966.658	13.69845
966.83	-5.26836
967.003	144.40954
967.175	57.9618
967.348	-36.87534
967.52	13.69845
967.692	17.91356
967.865	-34.76838
968.037	24.2364
968.209	83.25972
968.382	-15.80464
968.554	45.31408
968.726	47.42198
968.898	30.55946
969.071	-15.80464
969.243	-32.6614
969.415	30.55946
969.587	38.99053
969.759	-22.12611
969.932	89.5847
970.104	26.34407
970.276	-11.5902
970.448	17.91356
970.62	41.09836
970.792	5.26851
970.964	98.01833
971.136	30.55946
971.308	72.71852
971.48	64.28597
971.652	76.93493
971.824	1.05369
971.996	66.39408
972.168	13.69845
972.339	-3.16104
972.511	-41.08919
972.683	30.55946
972.855	-62.1569
973.027	-34.76838
973.199	1.05369
973.37	-1.05368
973.542	1.05369
973.714	22.12877
973.886	28.45175
974.057	41.09836
974.229	13.69845
974.401	5.26851
974.572	127.53879
974.744	9.48343
974.915	5.26851
975.087	72.71852
975.259	68.5022
975.43	-11.5902
975.602	15.80599
975.773	72.71852
975.945	-32.6614
976.116	-41.08919
976.288	1.05369
976.459	-1.05368
976.63	-24.23321
976.802	-3.16104
976.973	64.28597
977.145	24.2364
977.316	5.26851
977.487	22.12877
977.659	-26.3403
977.83	70.61035
978.001	47.42198
978.172	-1.05368
978.344	72.71852
978.515	24.2364
978.686	-17.91182
978.857	68.5022
979.028	34.77495
979.2	26.34407
979.371	1.05369
979.542	72.71852
979.713	93.80147
979.884	41.09836
980.055	22.12877
980.226	49.5299
980.397	53.7458
980.568	13.69845
980.739	24.2364
980.91	-51.62336
981.081	5.26851
981.252	41.09836
981.423	-3.16104
981.594	72.71852
981.765	-22.12611
981.936	30.55946
982.106	-5.26836
982.277	55.85379
982.448	-36.87534
982.619	30.55946
982.79	13.69845
982.96	30.55946
983.131	51.63784
983.302	13.69845
983.472	-60.05024
983.643	64.28597
983.814	-53.73012
983.984	89.5847
984.155	81.15143
984.326	72.71852
984.496	66.39408
984.667	-26.3403
984.837	-13.69743
985.008	72.71852
985.178	15.80599
985.349	13.69845
985.519	24.2364
985.69	89.5847
985.86	-53.73012
986.031	32.66719
986.201	-20.01897
986.371	-32.6614
986.542	5.26851
986.712	-28.44736
986.882	-24.23321
987.053	5.26851
987.223	17.91356
987.393	34.77495
987.563	24.2364
987.734	-26.3403
987.904	47.42198
988.074	-5.26836
988.244	-28.44736
988.414	9.48343
988.585	22.12877
988.755	-17.91182
988.925	-20.01897
989.095	30.55946
989.265	57.9618
989.435	66.39408
989.605	30.55946
989.775	30.55946
989.945	32.66719
990.115	-1.05368
990.285	-24.23321
990.455	-36.87534
990.625	36.88273
990.795	-28.44736
990.965	-28.44736
991.134	53.7458
991.304	-3.16104
991.474	13.69845
991.644	26.34407
991.814	89.5847
991.984	55.85379
992.153	-24.23321
992.323	91.69308
992.493	32.66719
992.662	51.63784
992.832	57.9618
993.002	11.59093
993.171	5.26851
993.341	41.09836
993.511	11.59093
993.68	-76.90279
993.85	24.2364
994.019	60.06984
994.189	17.91356
994.358	7.37596
994.528	7.37596
994.697	-34.76838
994.867	51.63784
995.036	-1.05368
995.206	45.31408
995.375	64.28597
995.544	47.42198
995.714	-11.5902
995.883	34.77495
996.052	64.28597
996.222	83.25972
996.391	-41.08919
996.56	38.99053
996.73	53.7458
996.899	41.09836
997.068	24.2364
997.237	41.09836
997.406	47.42198
997.576	26.34407
997.745	24.2364
997.914	72.71852
998.083	43.20621
998.252	9.48343
998.421	17.91356
998.59	34.77495
998.759	-22.12611
998.928	106.45231
999.097	-9.48295
999.266	34.77495
999.435	24.2364
999.604	30.55946
999.773	-36.87534
999.942	-9.48295
1000.111	15.80599
1000.28	-15.80464
1000.448	1.05369
1000.617	22.12877
1000.786	17.91356
1000.955	64.28597
1001.124	13.69845
1001.292	-100.07236
1001.461	47.42198
1001.63	-13.69743
1001.798	5.26851
1001.967	7.37596
1002.136	38.99053
1002.304	-53.73012
1002.473	22.12877
1002.642	17.91356
1002.81	30.55946
1002.979	47.42198
1003.147	-36.87534
1003.316	-34.76838
1003.484	-20.01897
1003.653	30.55946
1003.821	51.63784
1003.99	43.20621
1004.158	26.34407
1004.327	24.2364
1004.495	17.91356
1004.663	47.42198
1004.832	89.5847
1005	55.85379
1005.168	24.2364
1005.337	74.82672
1005.505	13.69845
1005.673	-24.23321
1005.842	62.17789
1006.01	26.34407
1006.178	70.61035
1006.346	62.17789
1006.514	-62.1569
1006.683	30.55946
1006.851	17.91356
1007.019	-49.51657
1007.187	66.39408
1007.355	-7.37567
1007.523	-34.76838
1007.691	7.37596
1007.859	-28.44736
1008.027	125.43005
1008.195	79.04317
1008.363	24.2364
1008.531	32.66719
1008.699	49.5299
1008.867	-70.58328
1009.035	68.5022
1009.203	38.99053
1009.37	-9.48295
1009.538	89.5847
1009.706	72.71852
1009.874	-1.05368
1010.042	38.99053
1010.209	-36.87534
1010.377	57.9618
1010.545	51.63784
1010.713	20.02115
1010.88	-43.19607
1011.048	28.45175
1011.216	24.2364
1011.383	13.69845
1011.551	-51.62336
1011.718	55.85379
1011.886	87.47635
1012.054	-32.6614
1012.221	28.45175
1012.389	47.42198
1012.556	3.16109
1012.724	9.48343
1012.891	49.5299
1013.058	38.99053
1013.226	17.91356
1013.393	104.34378
1013.561	81.15143
1013.728	64.28597
1013.895	9.48343
1014.063	38.99053
1014.23	-43.19607
1014.397	20.02115
1014.565	22.12877
1014.732	55.85379
1014.899	-68.47672
1015.066	22.12877
1015.233	-15.80464
1015.401	49.5299
1015.568	28.45175
1015.735	1.05369
1015.902	43.20621
1016.069	140.19172
1016.236	5.26851
1016.403	89.5847
1016.57	13.69845
1016.737	22.12877
1016.904	22.12877
1017.071	32.66719
1017.238	11.59093
1017.405	-70.58328
1017.572	11.59093
1017.739	91.69308
1017.906	83.25972
1018.073	13.69845
1018.24	-49.51657
1018.407	-11.5902
1018.573	62.17789
1018.74	17.91356
1018.907	-5.26836
1019.074	-5.26836
1019.241	74.82672
1019.407	-7.37567
1019.574	45.31408
1019.741	55.85379
1019.907	41.09836
1020.074	-7.37567
1020.241	20.02115
1020.407	47.42198
1020.574	-36.87534
1020.74	-7.37567
1020.907	-7.37567
1021.073	47.42198
1021.24	-32.6614
1021.406	32.66719
1021.573	45.31408
1021.739	66.39408
1021.906	15.80599
1022.072	-20.01897
1022.239	5.26851
1022.405	9.48343
1022.571	-26.3403
1022.738	47.42198
1022.904	-1.05368
1023.07	-9.48295
1023.237	-32.6614
1023.403	68.5022
1023.569	-7.37567
1023.735	32.66719
1023.902	17.91356
1024.068	-5.26836
1024.234	38.99053
1024.4	83.25972
1024.566	-15.80464
1024.732	-36.87534
1024.898	30.55946
1025.065	7.37596
1025.231	49.5299
1025.397	-76.90279
1025.563	-1.05368
1025.729	-13.69743
1025.895	53.7458
1026.061	9.48343
1026.227	30.55946
1026.392	68.5022
1026.558	-11.5902
1026.724	-11.5902
1026.89	51.63784
1027.056	47.42198
1027.222	28.45175
1027.388	-24.23321
1027.553	-7.37567
1027.719	30.55946
1027.885	57.9618
1028.051	26.34407
1028.216	81.15143
1028.382	5.26851
1028.548	-24.23321
1028.713	49.5299
1028.879	-11.5902
1029.045	5.26851
1029.21	-93.7537
1029.376	72.71852
1029.541	-11.5902
1029.707	47.42198
1029.873	-32.6614
1030.038	-11.5902
1030.204	68.5022
1030.369	85.36802
1030.534	22.12877
1030.7	-17.91182
1030.865	-62.1569
1031.031	-3.16104
1031.196	-45.30293
1031.361	24.2364
1031.527	17.91356
1031.692	-28.44736
1031.857	5.26851
1032.023	123.32132
1032.188	-11.5902
1032.353	17.91356
1032.518	-7.37567
1032.684	22.12877
1032.849	34.77495
1033.014	-11.5902
1033.179	-20.01897
1033.344	11.59093
1033.509	28.45175
1033.674	13.69845
1033.839	34.77495
1034.004	5.26851
1034.17	15.80599
1034.335	30.55946
1034.5	-3.16104
1034.664	-1.05368
1034.829	64.28597
1034.994	-49.51657
1035.159	13.69845
1035.324	28.45175
1035.489	38.99053
1035.654	-11.5902
1035.819	-57.94356
1035.984	24.2364
1036.148	66.39408
1036.313	-36.87534
1036.478	34.77495
1036.643	45.31408
1036.807	-22.12611
1036.972	43.20621
1037.137	22.12877
1037.301	-5.26836
1037.466	3.16109
1037.631	32.66719
1037.795	123.32132
1037.96	-3.16104
1038.124	-57.94356
1038.289	-17.91182
1038.454	74.82672
1038.618	49.5299
1038.783	-91.64742
1038.947	5.26851
1039.111	24.2364
1039.276	-24.23321
1039.44	-3.16104
1039.605	1.05369
1039.769	38.99053
1039.933	49.5299
1040.098	-9.48295
1040.262	5.26851
1040.426	26.34407
1040.591	-3.16104
1040.755	24.2364
1040.919	-26.3403
1041.083	55.85379
1041.248	5.26851
1041.412	83.25972
1041.576	-15.80464
1041.74	85.36802
1041.904	51.63784
1042.068	-24.23321
1042.232	-28.44736
1042.397	36.88273
1042.561	17.91356
1042.725	57.9618
1042.889	72.71852
1043.053	9.48343
1043.217	36.88273
1043.381	-15.80464
1043.544	22.12877
1043.708	30.55946
1043.872	43.20621
1044.036	-41.08919
1044.2	5.26851
1044.364	13.69845
1044.528	-3.16104
1044.691	7.37596
1044.855	-17.91182
1045.019	1.05369
1045.183	30.55946
1045.346	93.80147
1045.51	49.5299
1045.674	49.5299
1045.837	-17.91182
1046.001	60.06984
1046.165	-45.30293
1046.328	22.12877
1046.492	-28.44736
1046.655	41.09836
1046.819	-62.1569
1046.983	28.45175
1047.146	-17.91182
1047.31	34.77495
1047.473	91.69308
1047.636	-53.73012
1047.8	30.55946
1047.963	-57.94356
1048.127	47.42198
1048.29	24.2364
