Data from mixed_try6.1_USB4F045381__14__00298.txt Node

Date: Thu Apr 03 20:32:20 EDT 2025
User: mmckonesweet
Spectrometer: USB4F04538
Trigger mode: 4
Integration Time (sec): 2.700000E-3
Scans to average: 1
Electric dark correction enabled: true
Nonlinearity correction enabled: true
Boxcar width: 0
XAxis mode: Wavelengths
Number of Pixels in Spectrum: 3648
>>>>>Begin Spectral Data<<<<<
345.52	23.35822
345.736	23.35822
345.952	23.35822
346.168	-12.46822
346.384	-8.2537
346.6	46.54368
346.816	27.57355
347.032	-75.67402
347.248	33.89672
347.464	-44.07393
347.68	-20.89695
347.896	12.82031
348.112	-20.89695
348.328	31.78897
348.544	4.39042
348.76	48.65159
348.975	-44.07393
349.191	31.78897
349.407	42.32793
349.623	14.92785
349.839	-63.03467
350.055	-50.3944
350.27	-29.32529
350.486	-4.03909
350.702	-14.57544
350.918	-88.31244
351.133	-16.68263
351.349	46.54368
351.565	12.82031
351.781	-29.32529
351.996	12.82031
352.212	40.22009
352.428	0.17561
352.644	97.13981
352.859	-52.50118
353.075	-41.96706
353.291	31.78897
353.506	-4.03909
353.722	-81.99334
353.938	-86.2061
354.153	21.25059
354.369	-4.03909
354.584	4.39042
354.8	40.22009
355.016	25.46587
355.231	48.65159
355.447	-29.32529
355.662	33.89672
355.878	86.59788
356.093	-48.28761
356.309	-67.24789
356.524	46.54368
356.74	-8.2537
356.955	12.82031
357.171	-37.75323
357.386	-48.28761
357.602	-6.14641
357.817	17.0354
358.033	-35.64629
358.248	-37.75323
358.464	6.49786
358.679	-12.46822
358.895	-6.14641
359.11	29.68125
359.325	-54.60793
359.541	-10.36097
359.756	-4.03909
359.972	-12.46822
360.187	12.82031
360.402	-29.32529
360.618	17.0354
360.833	-52.50118
361.048	-16.68263
361.264	23.35822
361.479	59.19149
361.694	23.35822
361.909	46.54368
362.125	31.78897
362.34	-37.75323
362.555	57.08346
362.77	-54.60793
362.986	36.00449
363.201	63.4076
363.416	-25.11117
363.631	65.5157
363.847	-44.07393
364.062	-41.96706
364.277	-6.14641
364.492	6.49786
364.707	-77.78048
364.922	-20.89695
365.138	-63.03467
365.353	14.92785
365.568	-86.2061
365.783	63.4076
365.998	23.35822
366.213	-107.26832
366.428	-20.89695
366.643	-20.89695
366.858	12.82031
367.073	-20.89695
367.288	-6.14641
367.503	-37.75323
367.718	-20.89695
367.933	-44.07393
368.148	-63.03467
368.363	29.68125
368.578	-54.60793
368.793	6.49786
369.008	40.22009
369.223	46.54368
369.438	0.17561
369.653	-48.28761
369.868	2.283
370.083	-10.36097
370.298	57.08346
370.513	38.11228
370.728	29.68125
370.943	0.17561
371.157	-16.68263
371.372	-16.68263
371.587	-33.53931
371.802	-4.03909
372.017	-29.32529
372.232	-20.89695
372.446	-37.75323
372.661	-50.3944
372.876	-1.93175
373.091	38.11228
373.306	19.14299
373.52	-20.89695
373.735	-8.2537
373.95	38.11228
374.165	-41.96706
374.379	-35.64629
374.594	-41.96706
374.809	-12.46822
375.023	-16.68263
375.238	12.82031
375.453	42.32793
375.667	23.35822
375.882	54.97546
376.097	12.82031
376.311	-25.11117
376.526	-10.36097
376.741	-4.03909
376.955	-41.96706
377.17	25.46587
377.384	-67.24789
377.599	-29.32529
377.813	65.5157
378.028	-100.94993
378.242	48.65159
378.457	2.283
378.672	-35.64629
378.886	25.46587
379.101	29.68125
379.315	-20.89695
379.53	-10.36097
379.744	40.22009
379.958	36.00449
380.173	63.4076
380.387	46.54368
380.602	-33.53931
380.816	-8.2537
381.031	38.11228
381.245	33.89672
381.459	-12.46822
381.674	-27.21824
381.888	14.92785
382.103	-41.96706
382.317	6.49786
382.531	31.78897
382.746	0.17561
382.96	-33.53931
383.174	29.68125
383.388	12.82031
383.603	21.25059
383.817	-27.21824
384.031	-8.2537
384.246	-18.7898
384.46	-25.11117
384.674	-31.43231
384.888	46.54368
385.103	0.17561
385.317	-20.89695
385.531	71.84011
385.745	21.25059
385.959	17.0354
386.174	12.82031
386.388	-8.2537
386.602	-41.96706
386.816	-44.07393
387.03	14.92785
387.244	-8.2537
387.458	12.82031
387.672	-10.36097
387.887	-94.6313
388.101	-20.89695
388.315	17.0354
388.529	42.32793
388.743	-14.57544
388.957	-1.93175
389.171	31.78897
389.385	21.25059
389.599	59.19149
389.813	-16.68263
390.027	21.25059
390.241	10.7128
390.455	-18.7898
390.669	73.9483
390.883	-56.71465
391.097	-4.03909
391.311	-46.18078
391.525	-63.03467
391.738	12.82031
391.952	-27.21824
392.166	0.17561
392.38	-29.32529
392.594	36.00449
392.808	54.97546
393.022	46.54368
393.236	4.39042
393.449	-56.71465
393.663	-29.32529
393.877	-71.461
394.091	21.25059
394.305	63.4076
394.518	-20.89695
394.732	-25.11117
394.946	-20.89695
395.16	2.283
395.373	88.70622
395.587	-79.88693
395.801	-20.89695
396.015	-10.36097
396.228	-58.82135
396.442	-27.21824
396.656	59.19149
396.869	-10.36097
397.083	46.54368
397.297	-46.18078
397.51	-58.82135
397.724	-4.03909
397.938	-8.2537
398.151	-1.93175
398.365	-29.32529
398.578	4.39042
398.792	-41.96706
399.005	6.49786
399.219	17.0354
399.433	21.25059
399.646	-18.7898
399.86	-1.93175
400.073	46.54368
400.287	-46.18078
400.5	-44.07393
400.714	48.65159
400.927	-10.36097
401.141	12.82031
401.354	25.46587
401.567	21.25059
401.781	80.27299
401.994	-35.64629
402.208	-29.32529
402.421	10.7128
402.635	-20.89695
402.848	-67.24789
403.061	-39.86016
403.275	82.38126
403.488	38.11228
403.701	33.89672
403.915	8.60532
404.128	-18.7898
404.341	29.68125
404.555	40.22009
404.768	12.82031
404.981	-12.46822
405.195	-20.89695
405.408	-14.57544
405.621	25.46587
405.834	-39.86016
406.048	21.25059
406.261	-63.03467
406.474	-4.03909
406.687	38.11228
406.9	14.92785
407.114	-4.03909
407.327	14.92785
407.54	-37.75323
407.753	-18.7898
407.966	63.4076
408.179	6.49786
408.392	-29.32529
408.605	-27.21824
408.819	33.89672
409.032	-50.3944
409.245	33.89672
409.458	-35.64629
409.671	38.11228
409.884	-8.2537
410.097	-8.2537
410.31	38.11228
410.523	2.283
410.736	-14.57544
410.949	12.82031
411.162	12.82031
411.375	-58.82135
411.588	38.11228
411.801	31.78897
412.014	-77.78048
412.227	-44.07393
412.44	-52.50118
412.653	-29.32529
412.865	-41.96706
413.078	0.17561
413.291	-8.2537
413.504	54.97546
413.717	52.86748
413.93	-58.82135
414.143	4.39042
414.356	-8.2537
414.568	-4.03909
414.781	17.0354
414.994	29.68125
415.207	-8.2537
415.42	42.32793
415.632	2.283
415.845	-27.21824
416.058	21.25059
416.271	0.17561
416.483	-77.78048
416.696	0.17561
416.909	-16.68263
417.121	42.32793
417.334	65.5157
417.547	25.46587
417.759	38.11228
417.972	29.68125
418.185	-18.7898
418.397	17.0354
418.61	25.46587
418.823	-27.21824
419.035	-1.93175
419.248	-4.03909
419.46	4.39042
419.673	-27.21824
419.885	-12.46822
420.098	-23.00407
420.311	-12.46822
420.523	40.22009
420.736	29.68125
420.948	-8.2537
421.161	-31.43231
421.373	38.11228
421.586	-41.96706
421.798	29.68125
422.01	17.0354
422.223	0.17561
422.435	40.22009
422.648	-4.03909
422.86	46.54368
423.073	-60.92802
423.285	57.08346
423.497	23.35822
423.71	31.78897
423.922	-12.46822
424.134	38.11228
424.347	-63.03467
424.559	73.9483
424.771	38.11228
424.984	-63.03467
425.196	-1.93175
425.408	-14.57544
425.621	2.283
425.833	40.22009
426.045	-8.2537
426.257	-77.78048
426.47	12.82031
426.682	29.68125
426.894	-71.461
427.106	-41.96706
427.318	21.25059
427.531	4.39042
427.743	-37.75323
427.955	14.92785
428.167	31.78897
428.379	12.82031
428.591	48.65159
428.804	59.19149
429.016	-18.7898
429.228	65.5157
429.44	8.60532
429.652	-8.2537
429.864	59.19149
430.076	19.14299
430.288	8.60532
430.5	27.57355
430.712	40.22009
430.924	-18.7898
431.136	-6.14641
431.348	4.39042
431.56	-4.03909
431.772	-31.43231
431.984	17.0354
432.196	-10.36097
432.408	-20.89695
432.62	2.283
432.832	23.35822
433.044	29.68125
433.256	23.35822
433.468	-4.03909
433.679	4.39042
433.891	-60.92802
434.103	12.82031
434.315	-18.7898
434.527	46.54368
434.739	-12.46822
434.95	40.22009
435.162	-18.7898
435.374	21.25059
435.586	50.75953
435.798	-10.36097
436.009	-1.93175
436.221	6.49786
436.433	-8.2537
436.645	-67.24789
436.856	-35.64629
437.068	23.35822
437.28	14.92785
437.491	12.82031
437.703	38.11228
437.915	-8.2537
438.126	-52.50118
438.338	-16.68263
438.55	14.92785
438.761	2.283
438.973	23.35822
439.184	0.17561
439.396	21.25059
439.608	46.54368
439.819	12.82031
440.031	-1.93175
440.242	21.25059
440.454	2.283
440.665	46.54368
440.877	6.49786
441.088	12.82031
441.3	8.60532
441.511	-54.60793
441.723	17.0354
441.934	-79.88693
442.146	-12.46822
442.357	42.32793
442.569	-23.00407
442.78	0.17561
442.991	-1.93175
443.203	21.25059
443.414	-54.60793
443.626	27.57355
443.837	-44.07393
444.048	6.49786
444.26	-8.2537
444.471	6.49786
444.682	46.54368
444.894	0.17561
445.105	46.54368
445.316	-69.35446
445.528	4.39042
445.739	-8.2537
445.95	10.7128
446.161	33.89672
446.373	54.97546
446.584	38.11228
446.795	23.35822
447.006	17.0354
447.217	48.65159
447.429	-52.50118
447.64	-18.7898
447.851	19.14299
448.062	17.0354
448.273	-20.89695
448.484	27.57355
448.695	-63.03467
448.907	-12.46822
449.118	-73.56752
449.329	29.68125
449.54	-100.94993
449.751	21.25059
449.962	40.22009
450.173	-20.89695
450.384	-48.28761
450.595	29.68125
450.806	-23.00407
451.017	67.62381
451.228	-54.60793
451.439	14.92785
451.65	-33.53931
451.861	31.78897
452.072	-20.89695
452.283	-4.03909
452.494	-1.93175
452.705	-58.82135
452.915	23.35822
453.126	8.60532
453.337	-12.46822
453.548	-20.89695
453.759	-8.2537
453.97	-16.68263
454.181	-8.2537
454.391	-35.64629
454.602	-14.57544
454.813	-107.26832
455.024	-33.53931
455.235	38.11228
455.445	17.0354
455.656	92.92297
455.867	-71.461
456.078	-1.93175
456.288	-44.07393
456.499	63.4076
456.71	29.68125
456.921	46.54368
457.131	-20.89695
457.342	-46.18078
457.553	42.32793
457.763	38.11228
457.974	19.14299
458.184	-6.14641
458.395	8.60532
458.606	63.4076
458.816	-8.2537
459.027	40.22009
459.237	-46.18078
459.448	21.25059
459.659	63.4076
459.869	17.0354
460.08	48.65159
460.29	25.46587
460.501	-25.11117
460.711	48.65159
460.922	-20.89695
461.132	-8.2537
461.343	50.75953
461.553	40.22009
461.764	25.46587
461.974	10.7128
462.184	40.22009
462.395	-37.75323
462.605	-33.53931
462.816	14.92785
463.026	54.97546
463.236	12.82031
463.447	-12.46822
463.657	12.82031
463.867	12.82031
464.078	42.32793
464.288	25.46587
464.498	-31.43231
464.709	12.82031
464.919	-25.11117
465.129	17.0354
465.339	21.25059
465.55	59.19149
465.76	-27.21824
465.97	29.68125
466.18	-126.22207
466.391	38.11228
466.601	54.97546
466.811	21.25059
467.021	27.57355
467.231	25.46587
467.441	-37.75323
467.651	42.32793
467.862	4.39042
468.072	21.25059
468.282	50.75953
468.492	-14.57544
468.702	6.49786
468.912	4.39042
469.122	0.17561
469.332	38.11228
469.542	29.68125
469.752	12.82031
469.962	29.68125
470.172	0.17561
470.382	21.25059
470.592	0.17561
470.802	80.27299
471.012	63.4076
471.222	38.11228
471.432	36.00449
471.642	38.11228
471.852	44.4358
472.062	-8.2537
472.272	31.78897
472.482	12.82031
472.691	67.62381
472.901	25.46587
473.111	8.60532
473.321	-54.60793
473.531	54.97546
473.741	50.75953
473.95	38.11228
474.16	50.75953
474.37	-115.69247
474.58	25.46587
474.79	46.54368
474.999	4.39042
475.209	-29.32529
475.419	118.22533
475.628	65.5157
475.838	4.39042
476.048	12.82031
476.258	99.24826
476.467	12.82031
476.677	-12.46822
476.886	46.54368
477.096	4.39042
477.306	80.27299
477.515	23.35822
477.725	109.79086
477.935	46.54368
478.144	33.89672
478.354	50.75953
478.563	12.82031
478.773	76.05651
478.982	44.4358
479.192	84.48956
479.401	40.22009
479.611	59.19149
479.82	63.4076
480.03	99.24826
480.239	-35.64629
480.449	54.97546
480.658	29.68125
480.868	73.9483
481.077	76.05651
481.287	-8.2537
481.496	50.75953
481.705	124.55141
481.915	12.82031
482.124	101.35674
482.333	97.13981
482.543	-20.89695
482.752	69.73195
482.961	73.9483
483.171	109.79086
483.38	61.29953
483.589	71.84011
483.799	109.79086
484.008	132.98649
484.217	97.13981
484.426	33.89672
484.636	88.70622
484.845	50.75953
485.054	59.19149
485.263	101.35674
485.472	90.81458
485.682	99.24826
485.891	78.16474
486.1	69.73195
486.309	90.81458
486.518	164.62107
486.727	31.78897
486.936	130.87769
487.146	65.5157
487.355	107.68229
487.564	73.9483
487.773	99.24826
487.982	111.89944
488.191	109.79086
488.4	122.44269
488.609	84.48956
488.818	177.27622
489.027	143.53082
489.236	147.7487
489.445	185.7134
489.654	122.44269
489.863	61.29953
490.072	143.53082
490.281	88.70622
490.49	103.46523
490.698	179.38548
490.907	147.7487
491.116	105.57375
491.325	143.53082
491.534	143.53082
491.743	170.94855
491.952	164.62107
492.16	244.78265
492.369	185.7134
492.578	177.27622
492.787	162.51195
492.996	132.98649
493.204	181.49477
493.413	109.79086
493.622	122.44269
493.831	217.35571
494.039	181.49477
494.248	219.46535
494.457	187.82274
494.665	156.18471
494.874	223.68471
495.083	147.7487
495.291	181.49477
495.5	310.19835
495.709	249.00247
495.917	219.46535
496.126	299.64623
496.335	173.05775
496.543	312.30883
496.752	204.69824
496.96	244.78265
497.169	261.6624
497.377	225.79441
497.586	308.08789
497.794	257.44235
498.003	253.22237
498.211	324.97208
498.42	236.34324
498.628	240.56291
498.837	196.26033
499.045	316.52984
499.254	341.85741
499.462	284.87402
499.671	341.85741
499.879	295.42551
500.087	348.18969
500.296	367.18749
500.504	316.52984
500.713	358.74385
500.921	318.64038
501.129	362.96564
501.338	299.64623
501.546	430.52323
501.754	341.85741
501.962	405.18717
502.171	384.07557
502.379	377.74241
502.587	381.9645
502.795	367.18749
503.004	284.87402
503.212	388.29776
503.42	343.96815
503.628	493.87323
503.837	405.18717
504.045	430.52323
504.253	434.74613
504.461	510.76883
504.669	371.40941
504.877	569.91058
505.085	460.08485
505.294	453.74996
505.502	432.63468
505.71	436.85761
505.918	529.77749
506.126	548.78728
506.334	362.96564
506.542	580.47273
506.75	514.99288
506.958	588.92269
507.166	493.87323
507.374	460.08485
507.582	578.36028
507.79	519.21698
507.998	491.76134
508.206	495.98513
508.414	419.96626
508.622	593.14775
508.83	717.80903
509.037	502.32091
509.245	460.08485
509.453	578.36028
509.661	582.5852
509.869	582.5852
510.077	508.65683
510.285	616.38649
510.492	534.00179
510.7	703.0166
510.908	624.83732
511.116	588.92269
511.324	624.83732
511.531	734.71533
511.739	626.95005
511.947	705.12977
512.155	698.79028
512.362	679.77244
512.57	715.6958
512.778	719.92228
512.985	677.6594
513.193	705.12977
513.401	726.26209
513.608	673.43336
513.816	732.602
514.024	730.48869
514.231	717.80903
514.439	690.3378
514.646	779.09752
514.854	869.98853
515.061	705.12977
515.269	874.21642
515.477	831.93909
515.684	734.71533
515.892	772.75693
516.099	954.55229
516.307	889.01429
516.514	846.73576
516.722	884.78628
516.929	882.67229
517.136	800.23344
517.344	954.55229
517.551	808.68807
517.759	840.39428
517.966	920.72532
518.173	935.52439
518.381	977.8094
518.588	958.78079
518.796	886.90028
519.003	996.83854
519.21	1009.52493
519.418	1001.06731
519.625	861.53286
519.832	1009.52493
520.039	1043.35637
520.247	1075.07468
520.454	1026.44046
520.661	1096.22088
520.868	1075.07468
521.076	1157.54755
521.283	977.8094
521.49	1060.27265
521.697	1111.02352
521.904	1204.07353
522.112	1079.30388
522.319	1305.59001
522.526	1195.61413
522.733	1119.48227
522.94	1140.62947
523.147	1136.4
523.354	1263.29074
523.561	1237.91165
523.768	1172.35107
523.975	1267.52062
524.183	1225.22226
524.39	1314.04996
524.597	1288.67019
524.804	1326.73995
525.011	1263.29074
525.218	1252.71607
525.425	1259.06086
525.632	1394.42075
525.838	1280.21034
526.045	1305.59001
526.252	1246.3713
526.459	1451.52707
526.666	1352.1201
526.873	1451.52707
527.08	1339.42999
527.287	1443.06686
527.494	1366.92527
527.701	1470.56253
527.907	1474.79264
528.114	1578.42925
528.321	1426.14645
528.528	1690.52157
528.735	1354.23512
528.941	1567.85421
529.148	1385.96058
529.355	1646.10842
529.562	1569.96922
529.768	1779.34371
529.975	1597.46422
530.182	1794.14676
530.388	1612.26909
530.595	1650.33829
530.802	1434.60665
531.008	1808.94961
531.215	1775.11423
531.422	1874.50238
531.628	1762.4257
531.835	1796.26147
532.042	1641.87854
532.248	1956.96496
532.455	1686.2918
532.661	1923.13518
532.868	1838.55465
533.074	2011.93502
533.281	1724.3593
533.487	1891.41846
533.694	1730.70378
533.9	1914.67751
534.107	2028.848
534.313	1975.99353
534.52	1935.82152
534.726	2003.47836
534.933	1859.70055
535.139	2009.82086
535.345	1995.02161
535.552	2003.47836
535.758	1923.13518
535.965	2049.98862
536.171	2043.64651
536.377	2159.90808
536.584	1948.50765
536.79	2123.97514
536.996	2060.55867
537.203	2100.72322
537.409	2100.72322
537.615	2185.27111
537.821	2047.87459
538.028	2282.48454
538.234	2069.01458
538.44	2314.18041
538.646	2235.9935
538.853	2246.56003
539.059	2140.88505
539.265	2379.67828
539.471	2284.59767
539.677	2438.82922
539.883	2320.51933
540.09	2286.71078
540.296	2286.71078
540.502	2468.40155
540.708	2396.57938
540.914	2504.30791
541.12	2354.3254
541.326	2567.66403
541.532	2318.40636
541.738	2631.00946
541.944	2369.11475
542.15	2531.76351
542.356	2476.8504
542.562	2573.99906
542.768	2248.67331
542.974	2624.67541
543.18	2472.626
543.386	2620.45265
543.592	2481.07475
543.798	2753.44528
544.004	2440.9416
544.21	2751.33469
544.415	2531.76351
544.621	2886.38486
544.827	2797.76456
545.033	2711.23095
545.239	2717.56343
545.445	2810.42611
545.651	2550.77008
545.856	2920.13837
546.062	2827.30741
546.268	2837.85776
546.474	2854.7376
546.679	2888.49456
546.885	2658.45572
547.091	2814.64652
547.297	2685.89984
547.502	2816.7567
547.708	2683.78883
547.914	2831.52759
548.119	2823.08717
548.325	2903.26208
548.531	2922.24784
548.736	2966.54332
548.942	2877.94591
549.147	3190.02676
549.353	2998.17893
549.559	3251.137
549.764	3015.04986
549.97	3135.22652
550.175	3084.63204
550.381	3133.1186
550.586	3105.71419
550.792	3265.88564
550.997	3095.17331
551.203	3187.91926
551.408	3242.70883
551.614	3208.9935
551.819	3234.2804
552.025	3354.35998
552.23	3217.42273
552.435	3278.52668
552.641	3407.00875
552.846	3430.17072
553.052	3139.44232
553.257	3341.72264
553.462	3409.11448
553.668	3508.06324
553.873	3366.99668
554.078	3583.82659
554.283	3335.40374
554.489	3792.04982
554.694	3324.8719
554.899	3577.51389
555.105	3447.01444
555.31	3434.38176
555.515	3505.95836
555.72	3598.55556
555.925	3358.57228
556.131	3560.67921
556.336	3585.93078
556.541	3745.79428
556.746	3392.2682
556.951	3781.53803
557.156	3672.1866
557.361	3787.84516
557.567	3562.78361
557.772	3697.42617
557.977	3661.6693
558.182	3754.20508
558.387	3716.35404
558.592	3985.37811
558.797	3699.52934
559.002	3705.83875
559.207	3653.25512
559.412	4025.28329
559.617	3707.94184
559.822	3846.70321
560.027	3905.5457
560.232	3792.04982
560.437	3705.83875
560.642	4039.98333
560.847	3796.2544
561.051	4042.08325
561.256	3918.15276
561.461	3964.37242
561.666	3928.65809
561.871	4224.69674
562.076	3890.83655
562.281	3865.61858
562.485	3762.61557
562.69	4184.82921
562.895	3960.17104
563.1	4134.45933
563.305	3981.17714
563.509	4075.67921
563.714	3804.66333
563.919	4182.73071
564.123	4157.54703
564.328	4218.40238
564.533	3890.83655
564.737	4342.15618
564.942	4006.38176
565.147	4256.16568
565.351	4159.64579
565.556	4342.15618
565.761	4170.13925
565.965	4337.96236
566.17	4098.77335
566.374	4258.26344
566.579	4195.32141
566.784	4302.31142
566.988	4459.54779
567.193	4409.24548
567.397	4109.26985
567.602	4499.36148
567.806	4379.89665
568.011	4367.31728
568.215	4153.34946
568.42	4547.54635
568.624	4340.05929
568.828	4493.07564
569.033	4130.26129
569.237	4671.09717
569.442	4537.07237
569.646	4442.78175
569.85	4344.25306
570.055	4817.58137
570.259	4587.34238
570.463	4689.93705
570.668	4407.14927
570.872	4543.35682
571.076	4532.88263
571.281	4610.37852
571.485	4798.7539
571.689	4936.77902
571.893	4526.59784
572.098	4662.72331
572.302	4581.05933
572.506	4840.5902
572.71	4620.84859
572.914	4886.59959
573.119	4773.64776
573.323	4869.87018
573.527	4532.88263
573.731	4625.03647
573.935	4704.58904
574.139	4949.32181
574.343	4618.75462
574.547	4970.22462
574.751	4779.9246
574.955	5001.57452
575.159	4920.05401
575.364	5041.27694
575.568	4752.72347
575.772	4911.69095
575.976	4867.7789
576.18	5055.90204
576.383	4924.2354
576.587	5122.7452
576.791	4853.13931
576.995	5149.89345
577.199	4947.2314
577.403	5049.63428
577.607	5145.71705
577.811	5348.16484
578.015	5112.30252
578.219	5308.52744
578.422	5289.74888
578.626	5139.45228
578.83	4878.23507
579.034	5229.2273
579.238	5028.74023
579.442	5187.47683
579.645	5089.32659
579.849	5304.35459
580.053	5066.34785
580.257	5439.92419
580.46	5358.59432
580.664	5462.85692
580.868	5325.2179
581.071	5314.78654
581.275	5304.35459
581.479	5456.60282
581.682	5381.53713
581.886	5264.70785
582.09	5296.00861
582.293	5458.68755
582.497	5402.39177
582.7	5587.89441
582.904	5681.61685
583.107	5683.69903
583.311	5266.79473
583.515	5746.1534
583.718	5379.45154
583.922	5612.89173
584.125	5575.39448
584.329	5671.2056
584.532	5479.53348
584.735	5796.1016
584.939	5504.5455
585.142	5875.15846
585.346	5504.5455
585.549	5662.87618
585.753	5739.90892
585.956	5604.55967
586.159	5664.95857
586.363	5943.78545
586.566	5762.80431
586.769	5908.43536
586.973	5854.35732
587.176	5771.1292
587.379	5791.93977
587.582	5908.43536
587.786	5642.05098
587.989	5981.20753
588.192	5995.7585
588.395	6053.95084
588.599	5829.39285
588.802	6170.28017
589.005	5870.99842
589.208	6120.43377
589.411	5985.36507
589.615	6261.63013
589.818	6220.11305
590.021	6010.30832
590.224	5970.81328
590.427	6035.24817
590.63	5995.7585
590.833	6228.41722
591.036	6145.35866
591.239	6203.50359
591.442	6089.2729
591.645	6336.33729
591.848	6272.00794
592.051	6155.74304
592.254	6182.73966
592.457	6274.08343
592.66	6116.27929
592.863	6215.96083
593.066	6101.73788
593.269	6514.68205
593.472	6253.32747
593.675	6628.64978
593.878	6365.3819
594.081	6471.14862
594.284	6355.00935
594.486	6630.72128
594.689	6535.40866
594.892	6411.01418
595.095	6369.53075
595.298	6547.84351
595.5	6396.49604
595.703	6628.64978
595.906	6388.19945
596.109	6603.79006
596.311	6419.30975
596.514	6618.29197
596.717	6491.8801
596.92	6897.75178
597.122	6668.00423
597.325	6574.78284
597.528	6535.40866
597.73	6796.36637
597.933	6659.71978
598.136	7048.69452
598.338	6744.61804
598.541	6821.2005
598.743	6736.33698
598.946	6862.58343
599.148	6794.29671
599.351	6839.82395
599.554	6750.82859
599.756	6761.17906
599.959	6783.94807
600.161	7023.89025
600.363	6589.28701
600.566	6895.68323
600.768	6688.71377
600.971	6804.64478
601.173	6817.06171
601.376	7135.48405
601.578	6736.33698
601.78	6984.61022
601.983	7042.49375
602.185	6754.96885
602.388	6759.10901
602.59	7131.35211
602.792	6825.33921
602.995	7191.25656
603.197	7114.82345
603.399	7273.85283
603.601	6934.98171
603.804	6951.52599
604.006	6982.54262
604.208	7081.76184
604.41	7123.08796
604.613	6982.54262
604.815	7034.22575
605.017	7395.61812
605.219	7104.49231
605.421	7168.53638
605.623	7176.79858
605.826	7313.0737
606.028	7174.73306
606.23	7224.29931
606.432	6978.40737
606.634	7327.5215
606.836	7166.47078
607.038	7523.49325
607.24	7007.35228
607.442	7197.45251
607.644	7244.94815
607.846	7529.67866
608.048	7275.91728
608.25	7259.40103
608.452	7306.88146
608.654	7585.33859
608.856	7370.85846
609.058	7638.92233
609.26	7354.35028
609.462	7591.52207
609.664	7428.62612
609.866	7457.50357
610.067	7387.36525
610.269	7630.67962
610.471	7370.85846
610.673	7610.07134
610.875	7535.86386
611.077	7766.64117
611.278	7704.85185
611.48	7684.2512
611.682	7575.03237
611.884	7643.04356
612.085	7434.8145
612.287	7824.29419
612.489	7374.98529
612.69	7805.76464
612.892	7455.44103
613.094	7686.31136
613.295	7374.98529
613.497	7832.529
613.699	7521.43141
613.9	7789.29252
614.102	7723.39063
614.304	7643.04356
614.505	7461.62857
614.707	7807.82356
614.908	7445.12804
615.11	7706.9118
615.311	7605.94943
615.513	7776.93755
615.714	7694.55179
615.916	7698.67188
616.117	7381.17537
616.319	7752.22535
616.52	7535.86386
616.722	7708.97173
616.923	7632.74033
617.124	7651.28577
617.326	7645.10415
617.527	7836.64628
617.729	7737.80851
617.93	7778.99676
618.131	7647.16471
618.333	7632.74033
618.534	7999.21283
618.735	7844.88059
618.937	8005.38373
619.138	7910.74317
619.339	7725.45039
619.54	7951.89656
619.742	7836.64628
619.943	7743.98728
620.144	7859.28984
620.345	7778.99676
620.546	7964.24098
620.748	7988.92761
620.949	7776.93755
621.15	7960.12626
621.351	7655.40675
621.552	7976.58466
621.753	7673.95009
621.954	8147.26397
622.155	7665.70881
622.356	7925.14779
622.558	7927.20551
622.759	8046.51833
622.96	8013.6113
623.161	8194.53615
623.362	7962.18363
623.563	8102.03721
623.764	7702.79188
623.965	8188.37081
624.166	8046.51833
624.366	8025.95204
624.567	7972.47018
624.768	8112.31687
624.969	7750.16586
625.17	8083.53255
625.371	7902.5115
625.572	8169.87372
625.773	7805.76464
625.973	8081.47638
626.174	8112.31687
626.375	8169.87372
626.576	8030.06546
626.777	8342.45101
626.977	8173.98432
627.178	8500.52616
627.379	8153.4305
627.58	8204.81132
627.78	8001.26982
627.981	8173.98432
628.182	8254.12524
628.382	8171.92903
628.583	8093.81312
628.784	8157.54143
628.984	8017.72496
629.185	8362.98672
629.386	7939.55141
629.586	8284.94067
629.787	8252.07072
629.987	8447.16288
630.188	8295.2115
630.388	8508.73475
630.589	8241.79783
630.79	8219.19572
630.99	8073.25148
631.191	8303.42781
631.391	8141.09725
631.591	8381.46719
631.792	8165.76304
631.992	8572.34106
632.193	8313.69776
632.393	8367.09363
632.594	8420.47638
632.794	8482.05572
632.994	8418.42344
633.195	8537.46243
633.395	8408.15844
633.595	8506.68263
633.796	8527.20297
633.996	8615.41892
634.196	8278.77794
634.397	8761.0024
634.597	8564.13482
634.797	8617.47004
634.997	8441.00475
635.198	8566.18641
635.398	8272.61503
635.598	8510.78685
635.798	8239.74319
635.998	8592.85536
636.199	8527.20297
636.399	8765.102
636.599	8539.51427
636.799	8568.23798
636.999	8482.05572
637.199	8623.62329
637.399	8389.68023
637.599	8730.25307
637.799	8225.36017
637.999	8572.34106
638.199	8549.77316
638.399	8752.80298
638.599	8362.98672
638.799	8959.74973
638.999	8810.19278
639.199	8867.56838
639.399	8875.76374
639.599	8910.59083
639.799	8613.36778
639.999	8814.29151
640.199	8906.4938
640.399	9225.85242
640.599	8623.62329
640.799	8890.10493
640.998	8769.20152
641.198	8896.25089
641.398	8654.38703
641.598	8806.09398
641.798	8678.995
641.997	8791.74762
642.197	8732.30315
642.397	9103.07203
642.597	8986.37321
642.796	9023.23159
642.996	8865.51949
643.196	8824.53801
643.395	8572.34106
643.595	8922.88152
643.795	8580.54701
643.994	9080.5556
644.194	8834.78406
644.394	9223.80658
644.593	9221.76073
644.793	9344.48245
644.992	9082.60264
645.192	9058.03708
645.392	9074.41439
645.591	9010.9461
645.791	8808.14339
645.99	9131.72629
646.19	8883.95881
646.389	9111.2593
646.589	9000.7077
646.788	9178.79385
646.987	8894.20226
647.187	9248.35554
647.386	9047.80069
647.586	9276.99293
647.785	9033.46902
647.984	9137.86605
648.184	9037.56387
648.383	9612.22059
648.582	9107.1657
648.782	9550.93072
648.981	9146.05215
649.18	9182.88626
649.38	9037.56387
649.579	9170.60884
649.778	8943.36457
649.977	9669.41177
650.177	9189.02474
650.376	9546.84423
650.575	9242.21853
650.774	9328.12301
650.973	9146.05215
651.173	9227.89824
651.372	9068.27303
651.571	9350.61696
651.77	9141.95913
651.969	9389.46547
652.168	9324.03298
652.367	9315.85274
652.566	9264.72016
652.765	9383.33189
652.964	9301.53666
653.163	9366.97495
653.362	9305.62705
653.561	9436.48472
653.76	9293.35569
653.959	9546.84423
654.158	9330.168
654.357	9499.84496
654.556	9270.85662
654.755	9383.33189
654.954	9326.078
655.153	9407.86533
655.352	9317.89782
655.551	9227.89824
655.749	9516.19348
655.948	9604.04942
656.147	9579.53442
656.346	9497.80132
656.545	9426.26388
656.743	9691.87641
656.942	9328.12301
657.141	9918.46246
657.34	9407.86533
657.538	9738.84193
657.737	9942.94728
657.936	9928.66472
658.135	9677.58095
658.333	9771.50885
658.532	9736.80012
658.731	9602.00659
658.929	9497.80132
659.128	9698.00281
659.326	9452.83723
659.525	9998.03048
659.724	9916.42196
659.922	9728.63273
660.121	9520.28046
660.319	9661.24234
660.518	9612.22059
660.716	9546.84423
660.915	9526.4108
661.113	9806.2132
661.312	9555.01715
661.51	9881.73127
661.709	9626.51953
661.907	9663.28472
662.105	9710.25519
662.304	9910.30038
662.502	9499.84496
662.701	9796.00649
662.899	9571.36225
663.097	9681.66544
663.296	9646.94526
663.494	10046.98452
663.692	9530.49761
663.891	9802.13056
664.089	9485.53916
664.287	9695.96069
664.485	9375.15355
664.684	9896.01619
664.882	9781.71646
665.08	9532.54099
665.278	9450.79323
665.476	9673.49639
665.675	9695.96069
665.873	9632.64741
666.071	9614.26334
666.269	9867.44563
666.467	9877.64973
666.665	10038.82609
666.863	9653.07267
667.061	10000.0704
667.259	9661.24234
667.457	10061.26123
667.655	9879.69051
667.853	10171.37271
668.051	9742.92551
668.249	9947.02788
668.447	9777.63346
668.645	9832.7489
668.843	9710.25519
669.041	9891.93485
669.239	9616.30608
669.437	10069.41904
669.635	9773.5504
669.833	9636.73259
670.031	9614.26334
670.229	9965.38986
670.426	9706.17112
670.624	9991.91065
670.822	9702.087
671.02	9993.95061
671.218	9679.6232
671.415	9987.83068
671.613	9793.9651
671.811	9849.07731
672.009	9751.09248
672.206	9940.90696
672.404	9661.24234
672.602	9926.6243
672.799	9693.91856
672.997	9912.34092
673.195	9798.04786
673.392	10126.5174
673.59	9802.13056
673.788	10030.66742
673.985	9857.24115
674.183	9914.38145
674.38	9957.22912
674.578	10342.57753
674.775	10024.54827
674.973	10067.37961
675.17	9873.56813
675.368	10163.2177
675.565	10016.38921
675.763	10146.90701
675.96	9955.1889
676.158	10028.62772
676.355	9777.63346
676.553	10024.54827
676.75	9728.63273
676.947	10049.02409
677.145	9857.24115
677.342	10242.71967
677.539	9704.12907
677.737	10095.93037
677.934	9734.7583
678.131	10063.30071
678.329	9875.60894
678.526	9955.1889
678.723	9979.67059
678.92	9922.54341
679.118	9669.41177
679.315	10053.1032
679.512	9804.17189
679.709	10022.50853
679.906	9836.83109
680.104	10020.46877
680.301	9885.81275
680.498	10014.34941
680.695	9704.12907
680.892	10063.30071
681.089	9851.11829
681.286	9738.84193
681.483	9695.96069
681.68	10116.32207
681.877	9836.83109
682.075	10024.54827
682.272	9881.73127
682.469	10042.90533
682.665	9791.9237
682.862	9983.75066
683.059	9747.00903
683.256	10049.02409
683.453	9644.90275
683.65	10150.98477
683.847	9898.05683
684.044	9940.90696
684.241	9875.60894
684.438	10079.61599
684.635	10055.14273
684.831	10000.0704
685.028	10046.98452
685.225	9989.87067
685.422	9844.9953
685.619	10057.18224
685.815	9826.6255
686.012	9744.96728
686.209	9634.69001
686.405	9900.09746
686.602	9808.2545
686.799	9967.43001
686.996	9653.07267
687.192	9844.9953
687.389	9646.94526
687.586	9702.087
687.782	9936.82627
687.979	9971.51026
688.175	9834.79
688.372	9930.70513
688.568	9859.28208
688.765	9893.97553
688.962	9424.21966
689.158	9718.42314
689.355	9636.73259
689.551	9857.24115
689.748	9487.58289
689.944	9840.91322
690.14	9430.35226
690.337	9918.46246
690.533	9532.54099
690.73	9512.10645
690.926	9456.9252
691.123	9695.96069
691.319	9403.77659
691.515	9579.53442
691.712	9489.62661
691.908	9961.30952
692.104	9777.63346
692.301	9840.91322
692.497	9473.27642
692.693	9508.01935
692.889	9418.08691
693.086	9569.31917
693.282	9577.4914
693.478	9826.6255
693.674	9698.00281
693.87	9775.59194
694.067	9604.04942
694.263	9366.97495
694.459	9454.88122
694.655	9573.40532
694.851	9579.53442
695.047	9518.23698
695.243	9783.75794
695.439	9508.01935
695.635	9534.58436
695.831	9514.14997
696.027	9428.30808
696.224	9761.30085
696.42	9618.3488
696.615	9763.34248
696.811	9461.0131
697.007	9612.22059
697.203	9260.62911
697.399	9438.52884
697.595	9505.97578
697.791	9644.90275
697.987	9348.57214
698.183	9657.15754
698.379	9483.49541
698.575	9820.50197
698.77	9540.71436
698.966	9867.44563
699.162	9742.92551
699.358	9728.63273
699.554	9700.04491
699.749	9685.74988
699.945	9465.10094
700.141	9646.94526
700.337	9432.39643
700.532	9789.88228
700.728	9442.61703
700.924	9505.97578
701.119	9317.89782
701.315	9413.99833
701.511	9424.21966
701.706	9505.97578
701.902	9512.10645
702.097	9765.3841
702.293	9642.86024
702.489	9763.34248
702.684	9734.7583
702.88	9871.52731
703.075	9428.30808
703.271	9530.49761
703.466	9491.67031
703.662	9685.74988
703.857	9522.32392
704.053	9630.6048
704.248	9710.25519
704.443	9932.74553
704.639	9759.25921
704.834	9608.13504
705.03	9530.49761
705.225	9648.98774
705.42	9352.66177
705.616	9753.13419
705.811	9510.06291
706.006	9769.46728
706.202	9489.62661
706.397	9567.27607
706.592	9317.89782
706.787	9420.13117
706.983	9436.48472
707.178	9747.00903
707.373	9559.10352
707.568	9779.67497
707.763	9297.44621
707.959	9391.50996
708.154	9369.01963
708.349	9375.15355
708.544	9305.62705
708.739	9632.64741
708.934	9219.71485
709.129	9628.56217
709.324	9274.94751
709.519	9785.7994
709.714	9495.75767
709.909	9587.70634
710.104	9270.85662
710.299	9463.05703
710.494	9234.03561
710.689	9542.75767
710.884	9178.79385
711.079	9685.74988
711.274	9191.07086
711.469	9469.18871
711.664	9518.23698
711.859	9393.55444
712.054	9252.44679
712.249	9262.67464
712.443	9283.12909
712.638	9272.90208
712.833	9137.86605
713.028	9540.71436
713.223	9127.63303
713.417	9324.03298
713.612	9309.71738
713.807	9387.42096
714.002	9354.70656
714.196	9182.88626
714.391	9191.07086
714.586	9223.80658
714.78	9090.7906
714.975	9250.40117
715.17	9195.16307
715.364	9583.62041
715.559	9487.58289
715.754	9655.11511
715.948	9432.39643
716.143	9287.21978
716.337	9203.34727
716.532	9407.86533
716.726	9444.66111
716.921	9489.62661
717.115	9096.93139
717.31	9328.12301
717.504	9348.57214
717.699	9356.75133
717.893	9154.23799
718.088	9299.49145
718.282	9189.02474
718.476	9279.03833
718.671	9156.2844
718.865	9628.56217
719.059	9281.08372
719.254	9324.03298
719.448	9041.65865
719.642	9401.73219
719.837	8845.02965
720.031	9301.53666
720.225	8974.08582
720.419	9068.27303
720.614	9043.70602
720.808	9520.28046
721.002	8986.37321
721.196	9152.19155
721.39	9051.8953
721.585	9285.17444
721.779	9105.11887
721.973	9107.1657
722.167	8828.63648
722.361	8863.47059
722.555	8621.57223
722.749	9035.51646
722.943	8812.24216
723.137	9019.1365
723.331	8787.64849
723.525	9121.49301
723.719	8683.09607
723.913	9088.74364
724.107	8922.88152
724.301	9148.09864
724.495	8842.98057
724.689	8986.37321
724.883	8820.43946
725.077	9017.08892
725.271	8834.78406
725.465	8879.86131
725.659	8781.49967
725.853	9072.36729
726.046	8756.90273
726.24	8793.79715
726.434	8678.995
726.628	8978.18169
726.822	8904.44525
727.015	9103.07203
727.209	8949.50914
727.403	9084.64965
727.596	9015.04133
727.79	8947.46096
727.984	8820.43946
728.177	8857.32377
728.371	8736.40327
728.565	8845.02965
728.758	8896.25089
728.952	8804.04456
729.146	8787.64849
729.339	9006.85079
729.533	8953.60543
729.726	8976.13377
729.92	8789.69806
730.113	8886.00754
730.307	8886.00754
730.5	8877.81254
730.694	8845.02965
730.887	8978.18169
731.081	8838.88235
731.274	8853.2258
731.468	8596.958
731.661	8738.45329
731.854	8900.34811
732.048	9004.80311
732.241	8853.2258
732.435	9010.9461
732.628	8705.65064
732.821	8959.74973
733.014	8847.07872
733.208	9023.23159
733.401	8967.94189
733.594	8793.79715
733.788	8818.39016
733.981	8806.09398
734.174	8740.5033
734.367	8765.102
734.56	8873.71493
734.754	8771.25126
734.947	8674.89386
735.14	9076.46148
735.333	9002.75542
735.526	9023.23159
735.719	8957.70165
735.912	9080.5556
736.105	8967.94189
736.298	8818.39016
736.491	8834.78406
736.684	8828.63648
736.877	8779.45002
737.07	9076.46148
737.263	8781.49967
737.456	8898.29951
737.649	8785.5989
737.842	9035.51646
738.035	8791.74762
738.228	8916.73625
738.421	9072.36729
738.614	8892.1536
738.807	8853.2258
739	8806.09398
739.192	8953.60543
739.385	8873.71493
739.578	8861.42167
739.771	8605.16304
739.964	8619.52115
740.156	8828.63648
740.349	8681.04555
740.542	8820.43946
740.735	8953.60543
740.927	8754.85286
741.12	8527.20297
741.313	8744.60327
741.505	8728.20297
741.698	8654.38703
741.891	8777.40036
742.083	8748.70316
742.276	8814.29151
742.468	9041.65865
742.661	8910.59083
742.854	8881.91007
743.046	8910.59083
743.239	8892.1536
743.431	8804.04456
743.624	8742.5533
743.816	8475.89856
744.009	8674.89386
744.201	8510.78685
744.393	8838.88235
744.586	8570.28953
744.778	8840.93147
744.971	8736.40327
745.163	8599.00928
745.355	8578.49555
745.548	8486.16039
745.74	8533.35871
745.932	8631.82737
746.125	8576.44407
746.317	8693.34842
746.509	8539.51427
746.702	8787.64849
746.894	8806.09398
747.086	8674.89386
747.278	8824.53801
747.471	8814.29151
747.663	8656.43779
747.855	8401.99921
748.047	8401.99921
748.239	8352.71911
748.431	8399.9461
748.623	8648.23462
748.815	8560.03158
749.008	8453.32084
749.2	8471.79369
749.392	8428.68796
749.584	8572.34106
749.776	8650.28544
749.968	8547.72142
750.16	8672.84326
750.352	8465.63625
750.544	8289.04906
750.736	8514.891
750.928	8761.0024
751.12	8346.55831
751.311	8506.68263
751.503	8518.99507
751.695	8354.77267
751.887	8586.70127
752.079	8502.57834
752.271	8473.84613
752.463	8588.75265
752.654	8272.61503
752.846	8543.61788
753.038	8272.61503
753.23	8523.09906
753.421	8391.73345
753.613	8284.94067
753.805	8533.35871
753.997	8510.78685
754.188	8508.73475
754.38	8358.87973
754.572	8313.69776
754.763	8054.74428
754.955	7875.75631
755.146	8286.99488
755.338	8260.28868
755.53	8188.37081
755.721	8110.26098
755.913	8588.75265
756.104	8369.14705
756.296	8443.05748
756.487	8399.9461
756.679	8342.45101
756.87	7976.58466
757.062	8319.85949
757.253	8065.02626
757.445	8274.66935
757.636	8549.77316
757.827	8555.92827
758.019	8621.57223
758.21	8527.20297
758.401	7972.47018
758.593	8338.34364
758.784	8005.38373
758.975	8097.9252
759.167	7916.9167
759.358	8299.31969
759.549	8167.81839
759.74	8463.58373
759.932	8040.34866
760.123	8163.70766
760.314	8233.57916
760.505	7925.14779
760.696	8091.75704
760.888	8108.20507
761.079	7943.66654
761.27	7910.74317
761.461	7706.9118
761.652	7692.49172
761.843	7793.41067
762.034	7943.66654
762.225	7762.52247
762.416	7999.21283
762.607	7816.05904
762.798	8030.06546
762.989	7612.13226
763.18	8067.08259
763.371	7783.11513
763.562	7953.95402
763.753	7906.62738
763.944	7935.43619
764.135	8048.57485
764.326	7986.8705
764.517	7826.35292
764.708	7881.9309
764.899	7457.50357
765.089	7700.73189
765.28	8013.6113
765.471	7894.27951
765.662	7513.18382
765.853	7453.37848
766.043	7424.50043
766.234	7531.74041
766.425	7296.56062
766.615	7511.12187
766.806	7585.33859
766.997	7684.2512
767.187	7432.75173
767.378	7717.21123
767.569	7323.39367
767.759	7566.78701
767.95	7630.67962
768.141	7688.3715
768.331	7529.67866
768.522	7566.78701
768.712	7509.0599
768.903	7428.62612
769.093	7350.22302
769.284	7539.98723
769.474	7403.87064
769.665	7560.60277
769.855	7346.09567
770.046	7618.3149
770.236	7453.37848
770.426	7381.17537
770.617	7158.20814
770.807	7486.37677
770.998	7317.20175
771.188	7284.17488
771.378	7391.49173
771.569	7333.71309
771.759	7147.87934
771.949	7160.27383
772.139	7277.98171
772.33	6883.27149
772.52	7028.02452
772.71	7521.43141
772.9	7085.89486
773.09	7189.1912
773.281	6976.3397
773.471	7207.77864
773.661	6792.22703
773.851	6883.27149
774.041	6893.61466
774.231	7263.53023
774.421	6959.79759
774.611	7110.69106
774.802	7197.45251
774.992	7247.01292
775.182	7191.25656
775.372	7315.13774
775.562	7077.62874
775.752	7090.02778
775.942	6715.63272
776.131	6947.39005
776.321	6759.10901
776.511	6992.88037
776.701	6963.93325
776.891	7100.3597
777.081	6953.59392
777.271	7034.22575
777.461	6999.08276
777.651	7356.41388
777.84	6986.67779
778.03	7015.62145
778.22	6860.5145
778.41	6928.77723
778.599	6837.75477
778.789	7112.75727
778.979	6792.22703
779.169	6874.99654
779.358	6576.85493
779.548	6786.01785
779.738	6817.06171
779.927	6833.61634
780.117	6759.10901
780.307	6744.61804
780.496	6678.35929
780.686	6593.43086
780.875	6808.78385
781.065	6725.98514
781.254	6701.13838
781.444	6728.05555
781.633	6585.14308
781.823	6643.14976
782.012	6593.43086
782.202	6688.71377
782.391	6406.86626
782.581	6551.98828
782.77	6535.40866
782.96	6899.8203
783.149	6433.8261
783.338	6688.71377
783.528	6636.93562
783.717	6738.40728
783.906	6659.71978
784.096	6531.26352
784.285	6580.99905
784.474	6483.58779
784.663	6446.26778
784.853	6359.15844
785.042	6346.71089
785.231	6493.95312
785.42	6245.02443
785.61	6431.75241
785.799	6180.66314
785.988	6215.96083
786.177	6265.78133
786.366	6265.78133
786.555	6161.97338
786.744	6469.07534
786.933	6336.33729
787.122	6340.4868
787.312	6253.32747
787.501	6336.33729
787.69	6186.89263
787.879	6116.27929
788.068	6053.95084
788.257	6137.05074
788.445	6083.04009
788.634	6195.1983
788.823	6118.35654
789.012	6307.28811
789.201	6072.6516
789.39	6099.66044
789.579	5950.023
789.768	6211.80851
789.957	5810.66727
790.145	5841.87551
790.334	6172.35681
790.523	5825.23178
790.712	6122.51098
790.9	6313.51332
791.089	6195.1983
791.278	6352.93477
791.467	6022.77867
791.655	6166.12682
791.844	6112.12472
792.033	6020.70034
792.221	5796.1016
792.41	5989.52252
792.599	5823.1512
792.787	5997.83712
792.976	5692.0275
793.164	5833.55383
793.353	5775.2915
793.541	5968.73436
793.73	5833.55383
793.918	6116.27929
794.107	5677.45242
794.295	5823.1512
794.484	5974.97105
794.672	5796.1016
794.861	5812.74798
795.049	5933.38907
795.238	5675.37017
795.426	6126.66531
795.614	5587.89441
795.803	5637.88566
795.991	5841.87551
796.179	5698.27361
796.368	5635.80296
796.556	5739.90892
796.744	5414.90342
796.932	5789.85882
797.121	5400.30641
797.309	5583.72786
797.497	5671.2056
797.685	5866.83829
797.874	5679.53465
798.062	5754.47904
798.25	5389.87927
798.438	5706.60143
798.626	5639.96833
798.814	5642.05098
799.002	5387.79377
799.19	5779.45371
799.378	5425.32915
799.566	5698.27361
799.755	5512.88209
799.943	5548.30838
800.131	5652.46388
800.318	5429.49928
800.506	5133.1873
800.694	5358.59432
800.882	5270.96842
801.07	5569.1442
801.258	5521.2183
801.446	5769.04801
801.634	5481.61795
801.822	5606.64272
802.01	5262.62094
802.197	5542.05718
802.385	5398.22103
802.573	5279.31553
802.761	5396.13562
802.949	5414.90342
803.136	5431.58431
803.324	5475.36449
803.512	5385.70825
803.699	5479.53348
803.887	5494.12424
804.075	5689.94542
804.262	5404.4771
804.45	5508.71385
804.638	5369.02323
804.825	5748.23485
805.013	5637.88566
805.201	5873.07845
805.388	5539.9734
805.576	5539.9734
805.763	5469.11081
805.951	5646.21621
806.138	5431.58431
806.326	5646.21621
806.513	5512.88209
806.701	5708.68332
806.888	5387.79377
807.075	5806.50577
807.263	5671.2056
807.45	5887.638
807.638	5389.87927
807.825	5494.12424
808.012	5356.50847
808.2	5644.13361
808.387	5558.72658
808.574	5608.72575
808.761	5548.30838
808.949	5614.97469
809.136	5408.6477
809.323	5685.78118
809.51	5519.13428
809.698	5717.01067
809.885	5469.11081
810.072	5710.7652
810.259	5446.17885
810.446	5764.88557
810.633	5544.14094
810.82	5862.67806
811.008	5698.27361
811.195	5696.1916
811.382	5504.5455
811.569	5729.50098
811.756	5773.21036
811.943	6001.99428
812.13	5656.62887
812.317	5787.77785
812.504	5729.50098
812.691	5723.25593
812.878	5612.89173
813.064	5854.35732
813.251	5504.5455
813.438	5756.5604
813.625	5464.94157
813.812	5571.22765
813.999	5462.85692
814.186	5760.72303
814.372	5277.22878
814.559	5492.03992
814.746	5112.30252
814.933	5346.07887
815.12	5529.55413
815.306	5606.64272
815.493	5383.6227
815.68	5687.86331
815.866	5341.90686
816.053	5606.64272
816.24	5500.37707
816.426	5812.74798
816.613	5450.34851
816.799	5760.72303
816.986	5775.2915
817.173	5968.73436
817.359	5512.88209
817.546	5521.2183
817.732	5517.05024
817.919	5858.51774
818.105	5646.21621
818.292	5870.99842
818.478	5729.50098
818.665	5870.99842
818.851	5687.86331
819.037	5739.90892
819.224	5371.10894
819.41	5579.56122
819.597	5525.38627
819.783	5637.88566
819.969	5539.9734
820.156	5510.79798
820.342	5667.04094
820.528	5808.58653
820.714	5517.05024
820.901	5598.31038
821.087	5312.70019
821.273	5617.05762
821.459	5462.85692
821.646	5779.45371
821.832	5502.4613
822.018	5529.55413
822.204	5446.17885
822.39	5560.81015
822.576	5358.59432
822.762	5504.5455
822.948	5327.3041
823.134	5600.3935
823.32	5473.27995
823.507	5220.87795
823.693	5187.47683
823.879	5448.26369
824.065	5239.66345
824.25	5170.77404
824.436	5229.2273
824.622	5431.58431
824.808	5356.50847
824.994	5410.73296
825.18	5126.92211
825.366	5289.74888
825.552	5139.45228
825.738	5352.3367
825.923	5114.39111
826.109	5364.85174
826.295	5037.09813
826.481	5060.08043
826.667	5049.63428
826.852	5156.15787
827.038	5041.27694
827.224	5133.1873
827.409	5087.23773
827.595	5032.91922
827.781	5179.12562
827.966	5421.15893
828.152	5212.52823
828.338	5156.15787
828.523	5097.6818
828.709	5356.50847
828.894	4949.32181
829.08	5204.17814
829.266	4984.85521
829.451	5120.65671
829.637	5003.66432
829.822	5270.96842
830.008	5112.30252
830.193	5160.33403
830.378	4989.03518
830.564	5300.18165
830.749	5074.70408
830.935	5147.80526
831.12	4963.95402
831.305	5227.13999
831.491	4936.77902
831.676	5039.18754
831.861	4846.86486
832.047	5022.47157
832.232	4836.40698
832.417	4846.86486
832.602	4710.86812
832.788	4761.09346
832.973	4798.7539
833.158	4802.93794
833.343	4811.30575
833.528	4976.49501
833.714	4886.59959
833.899	5187.47683
834.084	4633.41195
834.269	4982.7652
834.454	4834.31534
834.639	4763.1859
834.824	4811.30575
835.009	4874.05267
835.194	4769.46308
835.379	4945.14097
835.564	4509.83745
835.749	4800.84593
835.934	4560.11438
836.119	4687.84382
836.304	4543.35682
836.489	4851.04785
836.674	4618.75462
836.859	4589.43669
837.044	4413.43782
837.228	4555.92512
837.413	4576.87052
837.598	4769.46308
837.783	4645.9745
837.968	4886.59959
838.152	4650.16183
838.337	4568.49263
838.522	4363.12398
838.707	4604.0962
838.891	4333.76846
839.076	4604.0962
839.261	4415.53395
839.445	4689.93705
839.63	4578.96494
839.815	4396.66793
839.999	4411.34166
840.184	4419.72616
840.368	4302.31142
840.553	4595.71947
840.737	4199.51814
840.922	4593.62523
841.106	4140.75623
841.291	4304.40871
841.475	4186.92769
841.66	4210.00959
841.844	3964.37242
842.029	4220.50052
842.213	4184.82921
842.397	4449.06918
842.582	4044.18316
842.766	4203.71478
842.951	4283.43487
843.135	4258.26344
843.319	4216.30421
843.504	4398.76424
843.688	4094.5746
843.872	4352.64035
844.056	4272.94715
844.241	4216.30421
844.425	4165.94193
844.609	4333.76846
844.793	4023.1832
844.977	4136.55832
845.161	3932.86008
845.346	4042.08325
845.53	3997.98055
845.714	4105.07132
845.898	3968.57372
846.082	4235.18692
846.266	4018.98297
846.45	4323.28332
846.634	4207.91135
846.818	4075.67921
847.002	3661.6693
847.186	3947.56641
847.37	3775.23072
847.554	3874.02489
847.738	3787.84516
847.922	4048.3829
848.106	3924.45602
848.29	3810.96981
848.473	3878.22792
848.657	4014.78265
848.841	3771.02575
849.025	3886.63375
849.209	3693.21977
849.392	3892.93792
849.576	3764.71814
849.76	3865.61858
849.944	3585.93078
850.127	3703.73563
850.311	3543.84335
850.495	3710.04492
850.678	3537.5296
850.862	3583.82659
851.046	3400.69148
851.229	3503.85347
851.413	3638.52957
851.596	3697.42617
851.78	3621.69923
851.964	3937.06199
852.147	3657.46225
852.331	3712.14798
852.514	3522.79687
852.698	3783.64043
852.881	3383.84464
853.065	3745.79428
853.248	3539.6342
853.431	3762.61557
853.615	3415.43154
853.798	3602.76367
853.982	3447.01444
854.165	3438.59272
854.348	3192.13424
854.532	3497.53867
854.715	3156.30484
854.898	3468.06746
855.081	3215.31545
855.265	3341.72264
855.448	3234.2804
855.631	3371.20878
855.814	3156.30484
855.997	3407.00875
856.181	3200.564
856.364	3366.99668
856.547	3251.137
856.73	3358.57228
856.913	3139.44232
857.096	3409.11448
857.279	3208.9935
857.462	3366.99668
857.645	3240.60175
857.828	3116.25467
858.011	3057.2229
858.194	3257.45795
858.377	3149.98151
858.56	3232.17325
858.743	3190.02676
858.926	3442.80361
859.109	3213.20815
859.292	3177.38153
859.475	3128.90272
859.658	3118.36272
859.841	3015.04986
860.023	3000.28785
860.206	2740.78153
860.389	2983.41607
860.572	2983.41607
860.755	3038.24579
860.937	2962.32499
861.12	3249.02998
861.303	3004.50564
861.486	3071.982
861.668	2882.16541
861.851	3082.52374
862.034	2888.49456
862.216	3025.5937
862.399	2837.85776
862.581	3090.95685
862.764	2742.89219
862.947	2983.41607
863.129	3004.50564
863.312	3025.5937
863.494	2677.45572
863.677	2732.33877
863.859	2736.56018
864.042	2850.51773
864.224	2662.67803
864.406	3034.02849
864.589	2677.45572
864.771	2831.52759
864.954	2595.11505
865.136	2683.78883
865.318	2535.98727
865.501	2612.00698
865.683	2542.32283
865.865	2717.56343
866.048	2371.22748
866.23	2618.34125
866.412	2464.17706
866.594	2523.31584
866.777	2320.51933
866.959	2620.45265
867.141	2417.70483
867.323	2643.67723
867.505	2375.4529
867.687	2540.21099
867.869	2421.92979
868.052	2573.99906
868.234	2212.74635
868.416	2599.33811
868.598	2381.79095
868.78	2500.0838
868.962	2373.34019
869.144	3000.28785
869.326	2362.77652
869.508	2761.8875
869.69	2411.3673
869.872	2645.78848
870.054	2495.85964
870.236	2508.53197
870.417	2271.91878
870.599	2590.89195
870.781	2421.92979
870.963	2641.56596
871.145	2398.69197
871.327	2542.32283
871.508	2238.10682
871.69	2464.17706
871.872	2235.9935
872.054	2476.8504
872.235	2244.44674
872.417	2396.57938
872.599	2343.76127
872.78	2593.00351
872.962	2274.03195
873.144	2614.11842
873.325	2347.98695
873.507	2381.79095
873.689	2259.23957
873.87	2514.86798
874.052	2227.54011
874.233	2407.14224
874.415	2436.71683
874.596	2443.05397
874.778	2314.18041
874.959	2491.63544
875.141	2083.81215
875.322	2415.59233
875.503	2246.56003
875.685	2409.25477
875.866	2011.93502
876.048	2282.48454
876.229	1980.22204
876.41	2178.93046
876.592	2085.92606
876.773	2335.30979
876.954	2170.47615
877.136	2229.65347
877.317	2007.7067
877.498	2286.71078
877.679	2208.51948
877.86	2358.55098
878.042	2189.49816
878.223	2369.11475
878.404	2303.61536
878.585	2443.05397
878.766	2299.38927
878.947	2578.22235
879.128	2293.05007
879.309	2599.33811
879.49	2288.82389
879.672	2525.42777
879.853	2231.76682
880.034	2345.87412
880.215	2193.72518
880.396	2331.08399
880.576	2193.72518
880.757	2415.59233
880.938	2309.95442
881.119	2337.42268
881.3	2447.27867
881.481	2559.21715
881.662	2280.37141
881.843	2276.14511
882.023	2193.72518
882.204	2288.82389
882.385	2085.92606
882.566	2434.60442
882.747	2054.21666
882.927	2219.08659
883.108	2001.36418
883.289	2126.08891
883.469	2126.08891
883.65	2443.05397
883.831	2252.89984
884.011	2333.1969
884.192	2288.82389
884.373	2445.16632
884.553	2424.04226
884.734	2438.82922
884.914	2356.43819
885.095	2424.04226
885.275	2286.71078
885.456	2328.97108
885.636	2058.44468
885.817	2529.65161
885.997	2295.16314
886.178	2405.02969
886.358	2252.89984
886.538	2476.8504
886.719	2299.38927
886.899	2455.72795
887.08	2402.91712
887.26	2263.46601
887.44	2371.22748
887.621	2500.0838
887.801	2375.4529
887.981	2527.53969
888.161	2360.66375
888.342	2430.37959
888.522	2390.24154
888.702	2295.16314
888.882	2388.12891
889.062	2261.35279
889.242	2240.22014
889.423	2312.06742
889.603	2162.02171
889.783	2316.29339
889.963	2011.93502
890.143	2390.24154
890.323	2047.87459
890.503	2333.1969
890.683	2219.08659
890.863	2333.1969
891.043	2128.20267
891.223	2328.97108
891.403	2307.84141
891.583	2493.74755
891.763	2314.18041
891.943	2364.88927
892.122	2187.38464
892.302	2424.04226
892.482	2024.6198
892.662	2373.34019
892.842	2265.57922
893.022	2312.06742
893.201	2030.96209
893.381	2145.11245
893.561	2104.95091
893.741	2383.90361
893.92	2219.08659
894.1	2472.626
894.28	2058.44468
894.459	2295.16314
894.639	2009.82086
894.819	2324.74522
894.998	2083.81215
895.178	2248.67331
895.357	2088.03996
895.537	2244.44674
895.716	2121.86137
895.896	2392.35417
896.075	2100.72322
896.255	2255.01309
896.434	1999.25
896.614	2164.13534
896.793	2058.44468
896.973	2102.83707
897.152	2026.7339
897.331	2345.87412
897.511	2159.90808
897.69	2134.54389
897.87	1889.30397
898.049	2145.11245
898.228	1901.99084
898.407	2077.47038
898.587	1889.30397
898.766	2147.22613
898.945	1908.3342
899.124	2007.7067
899.304	1821.63759
899.483	2049.98862
899.662	1992.9074
899.841	2028.848
900.02	1847.01306
900.199	1859.70055
900.378	1705.32568
900.557	1830.09616
900.737	1724.3593
900.916	1789.91734
901.095	1745.50744
901.274	1796.26147
901.453	1739.16304
901.632	1838.55465
901.811	1576.31424
901.989	1728.58895
902.168	1589.00425
902.347	1728.58895
902.526	1586.88925
902.705	1620.72898
902.884	1550.93407
903.063	1646.10842
903.242	1561.50917
903.42	1569.96922
903.599	1385.96058
903.778	1654.56816
903.957	1457.87222
904.135	1521.32364
904.314	1343.66002
904.493	1620.72898
904.672	1358.46517
904.85	1538.24391
905.029	1402.88092
905.207	1582.65925
905.386	1265.40568
905.565	1449.41201
905.743	1297.13008
905.922	1290.78516
906.1	1172.35107
906.279	1366.92527
906.457	1130.05582
906.636	1328.85495
906.814	1119.48227
906.993	1155.43277
907.171	1017.98265
907.35	1193.49929
907.528	1166.00668
907.707	1328.85495
907.885	1096.22088
908.063	1235.79675
908.242	1142.74422
908.42	1275.98042
908.598	1189.26961
908.777	1305.59001
908.955	1081.41849
909.133	1261.1758
909.311	986.26673
909.49	1157.54755
909.668	1163.89189
909.846	1172.35107
910.024	920.72532
910.202	1060.27265
910.38	1077.18928
910.559	1108.90884
910.737	1003.18171
910.915	1115.25289
911.093	977.8094
911.271	1144.85897
911.449	1009.52493
911.627	1214.64785
911.805	918.61119
911.983	1094.10624
912.161	986.26673
912.339	1113.1382
912.517	1049.69993
912.695	1246.3713
912.872	1051.81447
913.05	1170.23627
913.228	1223.10737
913.406	1111.02352
913.584	1123.71168
913.762	1220.99249
913.939	1174.46588
914.117	1267.52062
914.295	1053.929
914.473	1174.46588
914.65	1108.90884
914.828	1083.5331
915.006	1075.07468
915.184	1081.41849
915.361	1034.89837
915.539	1187.15478
915.716	1064.50177
915.894	1001.06731
916.072	1001.06731
916.249	1151.20324
916.427	967.23788
916.604	1007.41052
916.782	958.78079
916.959	1058.1581
917.137	935.52439
917.314	1170.23627
917.492	977.8094
917.669	1024.326
917.847	956.66654
918.024	1028.55493
918.201	929.18188
918.379	979.92372
918.556	891.1283
918.733	929.18188
918.911	728.37539
919.088	823.48405
919.265	815.02915
919.442	941.86696
919.62	815.02915
919.797	903.81255
919.974	749.50889
920.151	986.26673
920.328	857.30507
920.506	903.81255
920.683	967.23788
920.86	882.67229
921.037	848.84961
921.214	912.26887
921.391	796.00618
921.568	912.26887
921.745	766.41643
921.922	899.58443
922.099	713.58257
922.276	882.67229
922.453	643.8524
922.63	876.33038
922.807	772.75693
922.984	705.12977
923.161	690.3378
923.338	798.1198
923.514	645.96525
923.691	664.98142
923.868	707.24295
924.045	690.3378
924.222	614.27381
924.399	764.30296
924.575	612.16115
924.752	785.43819
924.929	673.43336
925.105	692.4509
925.282	631.17557
925.459	705.12977
925.635	726.26209
925.812	772.75693
925.989	591.03522
926.165	726.26209
926.342	593.14775
926.518	738.94201
926.695	521.32906
926.871	597.37286
927.048	565.68581
927.224	569.91058
927.401	548.78728
927.577	673.43336
927.754	485.42577
927.93	544.56279
928.107	476.97856
928.283	565.68581
928.459	500.20897
928.636	639.62674
928.812	523.44114
928.988	514.99288
929.165	375.63139
929.341	561.4611
929.517	612.16115
929.693	595.2603
929.87	460.08485
930.046	656.52967
930.222	504.43287
930.398	489.64947
930.574	436.85761
930.751	565.68581
930.927	392.52001
931.103	472.75504
931.279	371.40941
931.455	449.52678
931.631	400.96472
931.807	400.96472
931.983	495.98513
932.159	455.86158
932.335	392.52001
932.511	346.07892
932.687	358.74385
932.863	400.96472
933.039	377.74241
933.215	453.74996
933.391	310.19835
933.566	356.63299
933.742	282.76378
933.918	371.40941
934.094	270.10273
934.27	219.46535
934.445	295.42551
934.621	407.29842
934.797	257.44235
934.973	261.6624
935.148	204.69824
935.324	286.98428
935.5	219.46535
935.675	236.34324
935.851	251.11241
936.027	217.35571
936.202	249.00247
936.378	249.00247
936.553	206.80777
936.729	249.00247
936.904	181.49477
937.08	206.80777
937.255	63.4076
937.431	156.18471
937.606	63.4076
937.782	198.36978
937.957	105.57375
938.133	200.47924
938.308	122.44269
938.483	105.57375
938.659	71.84011
938.834	164.62107
939.009	175.16697
939.185	141.42191
939.36	54.97546
939.535	80.27299
939.71	139.31302
939.886	61.29953
940.061	105.57375
940.236	118.22533
940.411	84.48956
940.586	97.13981
940.761	80.27299
940.937	105.57375
941.112	95.03138
941.287	31.78897
941.462	107.68229
941.637	126.66015
941.812	12.82031
941.987	48.65159
942.162	61.29953
942.337	99.24826
942.512	54.97546
942.687	25.46587
942.862	105.57375
943.037	21.25059
943.212	54.97546
943.386	33.89672
943.561	88.70622
943.736	46.54368
943.911	61.29953
944.086	90.81458
944.26	73.9483
944.435	21.25059
944.61	118.22533
944.785	-1.93175
944.959	107.68229
945.134	57.08346
945.309	57.08346
945.483	33.89672
945.658	57.08346
945.833	124.55141
946.007	6.49786
946.182	10.7128
946.357	71.84011
946.531	92.92297
946.706	63.4076
946.88	59.19149
947.055	29.68125
947.229	128.76891
947.404	40.22009
947.578	90.81458
947.752	48.65159
947.927	122.44269
948.101	33.89672
948.276	82.38126
948.45	114.00805
948.624	88.70622
948.799	126.66015
948.973	-50.3944
949.147	-23.00407
949.321	63.4076
949.496	38.11228
949.67	63.4076
949.844	38.11228
950.018	25.46587
950.193	101.35674
950.367	122.44269
950.541	29.68125
950.715	48.65159
950.889	88.70622
951.063	73.9483
951.237	21.25059
951.411	42.32793
951.585	38.11228
951.759	25.46587
951.933	97.13981
952.107	80.27299
952.281	50.75953
952.455	50.75953
952.629	242.67277
952.803	46.54368
952.977	42.32793
953.151	17.0354
953.325	88.70622
953.499	59.19149
953.672	90.81458
953.846	78.16474
954.02	88.70622
954.194	82.38126
954.368	48.65159
954.541	88.70622
954.715	59.19149
954.889	160.40285
955.062	63.4076
955.236	92.92297
955.41	151.96666
955.583	29.68125
955.757	38.11228
955.93	76.05651
956.104	73.9483
956.278	63.4076
956.451	46.54368
956.625	40.22009
956.798	92.92297
956.972	-29.32529
957.145	-23.00407
957.319	-4.03909
957.492	40.22009
957.665	88.70622
957.839	-1.93175
958.012	124.55141
958.185	46.54368
958.359	65.5157
958.532	36.00449
958.705	80.27299
958.879	61.29953
959.052	54.97546
959.225	36.00449
959.398	97.13981
959.572	88.70622
959.745	101.35674
959.918	42.32793
960.091	69.73195
960.264	42.32793
960.438	78.16474
960.611	84.48956
960.784	114.00805
960.957	114.00805
961.13	57.08346
961.303	48.65159
961.476	71.84011
961.649	92.92297
961.822	97.13981
961.995	50.75953
962.168	86.59788
962.341	33.89672
962.514	42.32793
962.686	67.62381
962.859	0.17561
963.032	40.22009
963.205	40.22009
963.378	21.25059
963.551	27.57355
963.723	46.54368
963.896	48.65159
964.069	17.0354
964.242	31.78897
964.414	21.25059
964.587	46.54368
964.76	114.00805
964.932	158.29377
965.105	71.84011
965.278	109.79086
965.45	107.68229
965.623	63.4076
965.795	-33.53931
965.968	63.4076
966.14	120.334
966.313	61.29953
966.485	54.97546
966.658	-23.00407
966.83	80.27299
967.003	4.39042
967.175	65.5157
967.348	90.81458
967.52	38.11228
967.692	63.4076
967.865	151.96666
968.037	6.49786
968.209	19.14299
968.382	38.11228
968.554	23.35822
968.726	63.4076
968.898	97.13981
969.071	84.48956
969.243	73.9483
969.415	12.82031
969.587	141.42191
969.759	50.75953
969.932	29.68125
970.104	21.25059
970.276	88.70622
970.448	48.65159
970.62	103.46523
970.792	40.22009
970.964	61.29953
971.136	141.42191
971.308	23.35822
971.48	59.19149
971.652	36.00449
971.824	29.68125
971.996	59.19149
972.168	90.81458
972.339	50.75953
972.511	73.9483
972.683	57.08346
972.855	67.62381
973.027	63.4076
973.199	31.78897
973.37	61.29953
973.542	65.5157
973.714	-12.46822
973.886	-4.03909
974.057	48.65159
974.229	38.11228
974.401	67.62381
974.572	73.9483
974.744	38.11228
974.915	63.4076
975.087	48.65159
975.259	67.62381
975.43	61.29953
975.602	48.65159
975.773	88.70622
975.945	-20.89695
976.116	0.17561
976.288	38.11228
976.459	63.4076
976.63	88.70622
976.802	48.65159
976.973	4.39042
977.145	17.0354
977.316	10.7128
977.487	14.92785
977.659	54.97546
977.83	57.08346
978.001	48.65159
978.172	-52.50118
978.344	29.68125
978.515	101.35674
978.686	-25.11117
978.857	-12.46822
979.028	29.68125
979.2	61.29953
979.371	65.5157
979.542	52.86748
979.713	99.24826
979.884	0.17561
980.055	40.22009
980.226	122.44269
980.397	-18.7898
980.568	73.9483
980.739	48.65159
980.91	50.75953
981.081	29.68125
981.252	4.39042
981.423	50.75953
981.594	10.7128
981.765	42.32793
981.936	6.49786
982.106	105.57375
982.277	44.4358
982.448	38.11228
982.619	97.13981
982.79	88.70622
982.96	73.9483
983.131	8.60532
983.302	107.68229
983.472	38.11228
983.643	149.85767
983.814	50.75953
983.984	36.00449
984.155	82.38126
984.326	46.54368
984.496	38.11228
984.667	46.54368
984.837	54.97546
985.008	48.65159
985.178	2.283
985.349	-12.46822
985.519	97.13981
985.69	54.97546
985.86	63.4076
986.031	63.4076
986.201	97.13981
986.371	97.13981
986.542	50.75953
986.712	71.84011
986.882	73.9483
987.053	48.65159
987.223	-12.46822
987.393	88.70622
987.563	46.54368
987.734	73.9483
987.904	4.39042
988.074	46.54368
988.244	-20.89695
988.414	38.11228
988.585	25.46587
988.755	67.62381
988.925	25.46587
989.095	-44.07393
989.265	14.92785
989.435	-18.7898
989.605	12.82031
989.775	57.08346
989.945	-4.03909
990.115	90.81458
990.285	52.86748
990.455	6.49786
990.625	-4.03909
990.795	38.11228
990.965	48.65159
991.134	-1.93175
991.304	-20.89695
991.474	-12.46822
991.644	29.68125
991.814	57.08346
991.984	27.57355
992.153	59.19149
992.323	-50.3944
992.493	38.11228
992.662	-44.07393
992.832	-16.68263
993.002	61.29953
993.171	-41.96706
993.341	21.25059
993.511	6.49786
993.68	-18.7898
993.85	31.78897
994.019	63.4076
994.189	-10.36097
994.358	-29.32529
994.528	114.00805
994.697	38.11228
994.867	38.11228
995.036	-58.82135
995.206	-4.03909
995.375	54.97546
995.544	54.97546
995.714	-25.11117
995.883	36.00449
996.052	40.22009
996.222	46.54368
996.391	-18.7898
996.56	-44.07393
996.73	-10.36097
996.899	-1.93175
997.068	59.19149
997.237	29.68125
997.406	-6.14641
997.576	25.46587
997.745	33.89672
997.914	54.97546
998.083	-4.03909
998.252	29.68125
998.421	88.70622
998.59	46.54368
998.759	40.22009
998.928	114.00805
999.097	-1.93175
999.266	57.08346
999.435	-18.7898
999.604	105.57375
999.773	42.32793
999.942	31.78897
1000.111	59.19149
1000.28	-27.21824
1000.448	-33.53931
1000.617	-12.46822
1000.786	12.82031
1000.955	-44.07393
1001.124	54.97546
1001.292	46.54368
1001.461	29.68125
1001.63	46.54368
1001.798	38.11228
1001.967	4.39042
1002.136	-4.03909
1002.304	8.60532
1002.473	-8.2537
1002.642	0.17561
1002.81	-12.46822
1002.979	25.46587
1003.147	33.89672
1003.316	50.75953
1003.484	23.35822
1003.653	23.35822
1003.821	4.39042
1003.99	57.08346
1004.158	46.54368
1004.327	65.5157
1004.495	6.49786
1004.663	25.46587
1004.832	-31.43231
1005	6.49786
1005.168	52.86748
1005.337	-25.11117
1005.505	19.14299
1005.673	-20.89695
1005.842	29.68125
1006.01	-35.64629
1006.178	-31.43231
1006.346	-48.28761
1006.514	12.82031
1006.683	52.86748
1006.851	-35.64629
1007.019	-27.21824
1007.187	12.82031
1007.355	38.11228
1007.523	4.39042
1007.691	-25.11117
1007.859	17.0354
1008.027	-10.36097
1008.195	27.57355
1008.363	-8.2537
1008.531	46.54368
1008.699	46.54368
1008.867	73.9483
1009.035	4.39042
1009.203	21.25059
1009.37	21.25059
1009.538	-4.03909
1009.706	-4.03909
1009.874	12.82031
1010.042	21.25059
1010.209	8.60532
1010.377	-4.03909
1010.545	44.4358
1010.713	38.11228
1010.88	-14.57544
1011.048	-39.86016
1011.216	12.82031
1011.383	29.68125
1011.551	44.4358
1011.718	4.39042
1011.886	19.14299
1012.054	4.39042
1012.221	-4.03909
1012.389	-52.50118
1012.556	-4.03909
1012.724	33.89672
1012.891	0.17561
1013.058	67.62381
1013.226	21.25059
1013.393	-8.2537
1013.561	44.4358
1013.728	-20.89695
1013.895	21.25059
1014.063	-16.68263
1014.23	25.46587
1014.397	46.54368
1014.565	2.283
1014.732	23.35822
1014.899	6.49786
1015.066	63.4076
1015.233	0.17561
1015.401	0.17561
1015.568	0.17561
1015.735	-8.2537
1015.902	8.60532
1016.069	-20.89695
1016.236	-6.14641
1016.403	-4.03909
1016.57	29.68125
1016.737	4.39042
1016.904	-29.32529
1017.071	14.92785
1017.238	8.60532
1017.405	-12.46822
1017.572	8.60532
1017.739	8.60532
1017.906	12.82031
1018.073	42.32793
1018.24	29.68125
1018.407	82.38126
1018.573	50.75953
1018.74	-27.21824
1018.907	-8.2537
1019.074	-92.52504
1019.241	46.54368
1019.407	82.38126
1019.574	-20.89695
1019.741	42.32793
1019.907	38.11228
1020.074	10.7128
1020.241	38.11228
1020.407	12.82031
1020.574	-8.2537
1020.74	-46.18078
1020.907	84.48956
1021.073	33.89672
1021.24	14.92785
1021.406	-4.03909
1021.573	63.4076
1021.739	50.75953
1021.906	36.00449
1022.072	6.49786
1022.239	-100.94993
1022.405	33.89672
1022.571	-8.2537
1022.738	-1.93175
1022.904	-4.03909
1023.07	-27.21824
1023.237	27.57355
1023.403	65.5157
1023.569	-50.3944
1023.735	107.68229
1023.902	-25.11117
1024.068	57.08346
1024.234	8.60532
1024.4	36.00449
1024.566	71.84011
1024.732	50.75953
1024.898	27.57355
1025.065	29.68125
1025.231	-52.50118
1025.397	33.89672
1025.563	10.7128
1025.729	122.44269
1025.895	71.84011
1026.061	-4.03909
1026.227	33.89672
1026.392	50.75953
1026.558	4.39042
1026.724	-10.36097
1026.89	31.78897
1027.056	21.25059
1027.222	12.82031
1027.388	-54.60793
1027.553	-50.3944
1027.719	-128.32791
1027.885	-8.2537
1028.051	-50.3944
1028.216	10.7128
1028.382	42.32793
1028.548	-20.89695
1028.713	-20.89695
1028.879	-14.57544
1029.045	2.283
1029.21	21.25059
1029.376	-71.461
1029.541	10.7128
1029.707	-44.07393
1029.873	-41.96706
1030.038	0.17561
1030.204	84.48956
1030.369	8.60532
1030.534	10.7128
1030.7	-46.18078
1030.865	-33.53931
1031.031	21.25059
1031.196	-18.7898
1031.361	63.4076
1031.527	-54.60793
1031.692	29.68125
1031.857	54.97546
1032.023	12.82031
1032.188	71.84011
1032.353	29.68125
1032.518	-67.24789
1032.684	-16.68263
1032.849	59.19149
1033.014	67.62381
1033.179	-20.89695
1033.344	-52.50118
1033.509	29.68125
1033.674	-27.21824
1033.839	12.82031
1034.004	-1.93175
1034.17	19.14299
1034.335	-52.50118
1034.5	-8.2537
1034.664	59.19149
1034.829	42.32793
1034.994	-56.71465
1035.159	-37.75323
1035.324	-27.21824
1035.489	0.17561
1035.654	42.32793
1035.819	-1.93175
1035.984	54.97546
1036.148	10.7128
1036.313	-31.43231
1036.478	2.283
1036.643	-12.46822
1036.807	31.78897
1036.972	-12.46822
1037.137	17.0354
1037.301	46.54368
1037.466	-12.46822
1037.631	69.73195
1037.795	-29.32529
1037.96	23.35822
1038.124	23.35822
1038.289	76.05651
1038.454	-63.03467
1038.618	33.89672
1038.783	80.27299
1038.947	29.68125
1039.111	-20.89695
1039.276	8.60532
1039.44	-27.21824
1039.605	-46.18078
1039.769	50.75953
1039.933	-41.96706
1040.098	10.7128
1040.262	4.39042
1040.426	-20.89695
1040.591	2.283
1040.755	33.89672
1040.919	-44.07393
1041.083	6.49786
1041.248	-35.64629
1041.412	21.25059
1041.576	33.89672
1041.74	-33.53931
1041.904	82.38126
1042.068	23.35822
1042.232	-46.18078
1042.397	14.92785
1042.561	25.46587
1042.725	38.11228
1042.889	2.283
1043.053	-60.92802
1043.217	-12.46822
1043.381	21.25059
1043.544	-46.18078
1043.708	48.65159
1043.872	-50.3944
1044.036	17.0354
1044.2	-12.46822
1044.364	-44.07393
1044.528	-41.96706
1044.691	8.60532
1044.855	4.39042
1045.019	8.60532
1045.183	4.39042
1045.346	10.7128
1045.51	-23.00407
1045.674	-12.46822
1045.837	-10.36097
1046.001	-4.03909
1046.165	-4.03909
1046.328	12.82031
1046.492	29.68125
1046.655	29.68125
1046.819	-12.46822
1046.983	-79.88693
1047.146	-18.7898
1047.31	0.17561
1047.473	-37.75323
1047.636	29.68125
1047.8	-29.32529
1047.963	-4.03909
1048.127	-41.96706
1048.29	21.25059
