Data from absorb_only_2.23.25_USB4F045381__86__0191.txt Node

Date: Sun Feb 23 19:30:24 EST 2025
User: ssocol
Spectrometer: USB4F04538
Trigger mode: 4
Integration Time (sec): 2.600000E-3
Scans to average: 1
Electric dark correction enabled: true
Nonlinearity correction enabled: true
Boxcar width: 0
XAxis mode: Wavelengths
Number of Pixels in Spectrum: 3648
>>>>>Begin Spectral Data<<<<<
345.52	-63.03467
345.736	-63.03467
345.952	-63.03467
346.168	52.86748
346.384	-65.14129
346.6	-25.11117
346.816	6.49786
347.032	-18.7898
347.248	23.35822
347.464	-6.14641
347.68	31.78897
347.896	42.32793
348.112	-23.00407
348.328	10.7128
348.544	-98.84375
348.76	36.00449
348.975	21.25059
349.191	-31.43231
349.407	50.75953
349.623	-4.03909
349.839	-18.7898
350.055	-23.00407
350.27	-44.07393
350.486	-33.53931
350.702	-16.68263
350.918	-58.82135
351.133	109.79086
351.349	-81.99334
351.565	38.11228
351.781	-75.67402
351.996	19.14299
352.212	-37.75323
352.428	116.11668
352.644	-69.35446
352.859	6.49786
353.075	78.16474
353.291	-58.82135
353.506	-52.50118
353.722	19.14299
353.938	-12.46822
354.153	-1.93175
354.369	-8.2537
354.584	6.49786
354.8	-1.93175
355.016	-10.36097
355.231	-41.96706
355.447	-29.32529
355.662	33.89672
355.878	29.68125
356.093	-6.14641
356.309	-60.92802
356.524	-31.43231
356.74	-10.36097
356.955	6.49786
357.171	2.283
357.386	-31.43231
357.602	-20.89695
357.817	-35.64629
358.033	-27.21824
358.248	-39.86016
358.464	31.78897
358.679	-18.7898
358.895	33.89672
359.11	-6.14641
359.325	-52.50118
359.541	-23.00407
359.756	48.65159
359.972	44.4358
360.187	-16.68263
360.402	-23.00407
360.618	-25.11117
360.833	44.4358
361.048	-31.43231
361.264	-31.43231
361.479	44.4358
361.694	-35.64629
361.909	-29.32529
362.125	-8.2537
362.34	67.62381
362.555	-4.03909
362.77	17.0354
362.986	-18.7898
363.201	-1.93175
363.416	-63.03467
363.631	36.00449
363.847	40.22009
364.062	17.0354
364.277	-14.57544
364.492	6.49786
364.707	-33.53931
364.922	-1.93175
365.138	-25.11117
365.353	-35.64629
365.568	-35.64629
365.783	-44.07393
365.998	-25.11117
366.213	42.32793
366.428	-27.21824
366.643	-12.46822
366.858	-35.64629
367.073	132.98649
367.288	-1.93175
367.503	59.19149
367.718	46.54368
367.933	31.78897
368.148	-27.21824
368.363	14.92785
368.578	-18.7898
368.793	-41.96706
369.008	-1.93175
369.223	-48.28761
369.438	23.35822
369.653	10.7128
369.868	-8.2537
370.083	23.35822
370.298	46.54368
370.513	57.08346
370.728	27.57355
370.943	-14.57544
371.157	-23.00407
371.372	-16.68263
371.587	-25.11117
371.802	-20.89695
372.017	57.08346
372.232	-44.07393
372.446	-29.32529
372.661	-1.93175
372.876	63.4076
373.091	14.92785
373.306	14.92785
373.52	-41.96706
373.735	40.22009
373.95	76.05651
374.165	-60.92802
374.379	14.92785
374.594	-31.43231
374.809	8.60532
375.023	-33.53931
375.238	-44.07393
375.453	-23.00407
375.667	-25.11117
375.882	0.17561
376.097	-60.92802
376.311	27.57355
376.526	-14.57544
376.741	-86.2061
376.955	-56.71465
377.17	-41.96706
377.384	-6.14641
377.599	-37.75323
377.813	33.89672
378.028	6.49786
378.242	-18.7898
378.457	-60.92802
378.672	69.73195
378.886	46.54368
379.101	54.97546
379.315	31.78897
379.53	-20.89695
379.744	-31.43231
379.958	-16.68263
380.173	-23.00407
380.387	-33.53931
380.602	-94.6313
380.816	-54.60793
381.031	65.5157
381.245	-69.35446
381.459	-16.68263
381.674	40.22009
381.888	23.35822
382.103	-94.6313
382.317	-1.93175
382.531	-16.68263
382.746	-33.53931
382.96	17.0354
383.174	48.65159
383.388	4.39042
383.603	21.25059
383.817	-10.36097
384.031	23.35822
384.246	67.62381
384.46	-18.7898
384.674	-35.64629
384.888	19.14299
385.103	10.7128
385.317	44.4358
385.531	40.22009
385.745	-1.93175
385.959	27.57355
386.174	-44.07393
386.388	27.57355
386.602	42.32793
386.816	10.7128
387.03	33.89672
387.244	-18.7898
387.458	-1.93175
387.672	69.73195
387.887	31.78897
388.101	12.82031
388.315	-10.36097
388.529	-14.57544
388.743	10.7128
388.957	-23.00407
389.171	33.89672
389.385	40.22009
389.599	61.29953
389.813	-8.2537
390.027	-16.68263
390.241	2.283
390.455	73.9483
390.669	-16.68263
390.883	33.89672
391.097	-6.14641
391.311	-31.43231
391.525	-18.7898
391.738	-8.2537
391.952	36.00449
392.166	31.78897
392.38	31.78897
392.594	21.25059
392.808	-20.89695
393.022	38.11228
393.236	14.92785
393.449	8.60532
393.663	65.5157
393.877	-10.36097
394.091	44.4358
394.305	-60.92802
394.518	21.25059
394.732	21.25059
394.946	36.00449
395.16	-60.92802
395.373	65.5157
395.587	12.82031
395.801	-8.2537
396.015	46.54368
396.228	12.82031
396.442	-29.32529
396.656	48.65159
396.869	23.35822
397.083	14.92785
397.297	-18.7898
397.51	-10.36097
397.724	19.14299
397.938	10.7128
398.151	-23.00407
398.365	-58.82135
398.578	6.49786
398.792	2.283
399.005	-25.11117
399.219	38.11228
399.433	-1.93175
399.646	-41.96706
399.86	-6.14641
400.073	10.7128
400.287	19.14299
400.5	-63.03467
400.714	-29.32529
400.927	6.49786
401.141	-4.03909
401.354	0.17561
401.567	86.59788
401.781	14.92785
401.994	-16.68263
402.208	2.283
402.421	-27.21824
402.635	6.49786
402.848	31.78897
403.061	44.4358
403.275	-25.11117
403.488	23.35822
403.701	33.89672
403.915	50.75953
404.128	95.03138
404.341	23.35822
404.555	6.49786
404.768	17.0354
404.981	65.5157
405.195	17.0354
405.408	14.92785
405.621	14.92785
405.834	-25.11117
406.048	8.60532
406.261	40.22009
406.474	31.78897
406.687	44.4358
406.9	67.62381
407.114	23.35822
407.327	69.73195
407.54	14.92785
407.753	-25.11117
407.966	23.35822
408.179	19.14299
408.392	-77.78048
408.605	0.17561
408.819	21.25059
409.032	23.35822
409.245	2.283
409.458	38.11228
409.671	40.22009
409.884	-1.93175
410.097	-10.36097
410.31	27.57355
410.523	27.57355
410.736	48.65159
410.949	10.7128
411.162	-20.89695
411.375	40.22009
411.588	-18.7898
411.801	48.65159
412.014	44.4358
412.227	61.29953
412.44	8.60532
412.653	-25.11117
412.865	-35.64629
413.078	17.0354
413.291	122.44269
413.504	38.11228
413.717	33.89672
413.93	57.08346
414.143	14.92785
414.356	10.7128
414.568	31.78897
414.781	21.25059
414.994	-6.14641
415.207	25.46587
415.42	-44.07393
415.632	-31.43231
415.845	73.9483
416.058	-16.68263
416.271	-134.64526
416.483	27.57355
416.696	-69.35446
416.909	2.283
417.121	14.92785
417.334	-14.57544
417.547	-23.00407
417.759	2.283
417.972	23.35822
418.185	-65.14129
418.397	46.54368
418.61	42.32793
418.823	-25.11117
419.035	-14.57544
419.248	31.78897
419.46	40.22009
419.673	27.57355
419.885	50.75953
420.098	-119.90439
420.311	33.89672
420.523	61.29953
420.736	-18.7898
420.948	44.4358
421.161	111.89944
421.373	-27.21824
421.586	-8.2537
421.798	2.283
422.01	23.35822
422.223	36.00449
422.435	6.49786
422.648	17.0354
422.86	19.14299
423.073	63.4076
423.285	2.283
423.497	-79.88693
423.71	65.5157
423.922	27.57355
424.134	17.0354
424.347	19.14299
424.559	2.283
424.771	27.57355
424.984	10.7128
425.196	48.65159
425.408	-16.68263
425.621	44.4358
425.833	-1.93175
426.045	73.9483
426.257	19.14299
426.47	29.68125
426.682	14.92785
426.894	69.73195
427.106	-27.21824
427.318	23.35822
427.531	19.14299
427.743	36.00449
427.955	17.0354
428.167	-18.7898
428.379	-1.93175
428.591	50.75953
428.804	19.14299
429.016	14.92785
429.228	-8.2537
429.44	84.48956
429.652	6.49786
429.864	67.62381
430.076	-41.96706
430.288	-33.53931
430.5	-52.50118
430.712	29.68125
430.924	-10.36097
431.136	31.78897
431.348	-18.7898
431.56	48.65159
431.772	-39.86016
431.984	-16.68263
432.196	10.7128
432.408	92.92297
432.62	-8.2537
432.832	31.78897
433.044	0.17561
433.256	31.78897
433.468	10.7128
433.679	-10.36097
433.891	17.0354
434.103	73.9483
434.315	48.65159
434.527	-16.68263
434.739	-23.00407
434.95	-29.32529
435.162	42.32793
435.374	31.78897
435.586	52.86748
435.798	14.92785
436.009	0.17561
436.221	44.4358
436.433	2.283
436.645	-48.28761
436.856	50.75953
437.068	25.46587
437.28	10.7128
437.491	-16.68263
437.703	38.11228
437.915	48.65159
438.126	25.46587
438.338	-44.07393
438.55	19.14299
438.761	137.20416
438.973	59.19149
439.184	29.68125
439.396	-18.7898
439.608	57.08346
439.819	14.92785
440.031	-1.93175
440.242	33.89672
440.454	48.65159
440.665	-35.64629
440.877	19.14299
441.088	27.57355
441.3	52.86748
441.511	-31.43231
441.723	-14.57544
441.934	40.22009
442.146	-52.50118
442.357	65.5157
442.569	88.70622
442.78	63.4076
442.991	90.81458
443.203	-27.21824
443.414	8.60532
443.626	27.57355
443.837	-6.14641
444.048	0.17561
444.26	36.00449
444.471	52.86748
444.682	4.39042
444.894	57.08346
445.105	40.22009
445.316	31.78897
445.528	31.78897
445.739	-60.92802
445.95	-8.2537
446.161	19.14299
446.373	12.82031
446.584	-48.28761
446.795	21.25059
447.006	57.08346
447.217	-8.2537
447.429	31.78897
447.64	92.92297
447.851	-1.93175
448.062	10.7128
448.273	31.78897
448.484	84.48956
448.695	2.283
448.907	-48.28761
449.118	92.92297
449.329	19.14299
449.54	-14.57544
449.751	23.35822
449.962	29.68125
450.173	99.24826
450.384	0.17561
450.595	65.5157
450.806	46.54368
451.017	23.35822
451.228	-25.11117
451.439	99.24826
451.65	69.73195
451.861	40.22009
452.072	48.65159
452.283	73.9483
452.494	-77.78048
452.705	8.60532
452.915	-16.68263
453.126	48.65159
453.337	-1.93175
453.548	84.48956
453.759	59.19149
453.97	31.78897
454.181	27.57355
454.391	-1.93175
454.602	48.65159
454.813	67.62381
455.024	76.05651
455.235	29.68125
455.445	40.22009
455.656	50.75953
455.867	6.49786
456.078	52.86748
456.288	99.24826
456.499	31.78897
456.71	25.46587
456.921	90.81458
457.131	40.22009
457.342	-1.93175
457.553	27.57355
457.763	63.4076
457.974	63.4076
458.184	48.65159
458.395	92.92297
458.606	-14.57544
458.816	97.13981
459.027	52.86748
459.237	90.81458
459.448	27.57355
459.659	65.5157
459.869	-1.93175
460.08	-27.21824
460.29	57.08346
460.501	19.14299
460.711	8.60532
460.922	19.14299
461.132	97.13981
461.343	-33.53931
461.553	57.08346
461.764	27.57355
461.974	36.00449
462.184	27.57355
462.395	48.65159
462.605	44.4358
462.816	105.57375
463.026	14.92785
463.236	97.13981
463.447	61.29953
463.657	86.59788
463.867	27.57355
464.078	50.75953
464.288	73.9483
464.498	99.24826
464.709	48.65159
464.919	61.29953
465.129	25.46587
465.339	99.24826
465.55	0.17561
465.76	67.62381
465.97	14.92785
466.18	27.57355
466.391	36.00449
466.601	76.05651
466.811	128.76891
467.021	50.75953
467.231	116.11668
467.441	132.98649
467.651	65.5157
467.862	76.05651
468.072	23.35822
468.282	54.97546
468.492	65.5157
468.702	-10.36097
468.912	40.22009
469.122	59.19149
469.332	177.27622
469.542	111.89944
469.752	73.9483
469.962	151.96666
470.172	19.14299
470.382	132.98649
470.592	61.29953
470.802	73.9483
471.012	132.98649
471.222	132.98649
471.432	118.22533
471.642	166.73021
471.852	149.85767
472.062	116.11668
472.272	122.44269
472.482	154.07568
472.691	78.16474
472.901	196.26033
473.111	109.79086
473.321	82.38126
473.531	128.76891
473.741	111.89944
473.95	116.11668
474.16	181.49477
474.37	286.98428
474.58	175.16697
474.79	154.07568
474.999	166.73021
475.209	206.80777
475.419	202.58873
475.628	173.05775
475.838	139.31302
476.048	132.98649
476.258	225.79441
476.467	263.77245
476.677	244.78265
476.886	221.57502
477.096	194.1509
477.306	177.27622
477.515	225.79441
477.725	280.65356
477.935	208.91732
478.144	272.21286
478.354	303.86702
478.563	267.99262
478.773	270.10273
478.982	318.64038
479.192	278.54336
479.401	282.76378
479.611	280.65356
479.82	286.98428
480.03	339.74668
480.239	362.96564
480.449	280.65356
480.658	377.74241
480.868	335.52528
481.077	343.96815
481.287	293.31517
481.496	407.29842
481.705	424.189
481.915	466.41988
482.124	470.64331
482.333	436.85761
482.543	455.86158
482.752	487.53762
482.961	523.44114
483.171	481.20214
483.38	462.19651
483.589	582.5852
483.799	529.77749
484.008	593.14775
484.217	588.92269
484.426	605.82323
484.636	620.61188
484.845	559.34876
485.054	514.99288
485.263	728.37539
485.472	572.02299
485.682	741.05536
485.891	563.57345
486.1	698.79028
486.309	804.46074
486.518	755.84914
486.727	732.602
486.936	734.71533
487.146	692.4509
487.355	844.62192
487.564	815.02915
487.773	850.96346
487.982	783.32462
488.191	844.62192
488.4	872.10247
488.609	971.46647
488.818	880.55831
489.027	971.46647
489.236	895.35635
489.445	1083.5331
489.654	878.44434
489.863	954.55229
490.072	1020.09709
490.281	1094.10624
490.49	954.55229
490.698	1246.3713
490.907	1022.21154
491.116	1094.10624
491.325	1106.79417
491.534	1216.76273
491.743	1166.00668
491.952	1210.41811
492.16	1210.41811
492.369	1286.55522
492.578	1113.1382
492.787	1443.06686
492.996	1261.1758
493.204	1455.75717
493.413	1396.53579
493.622	1421.91635
493.831	1146.97372
494.039	1354.23512
494.248	1335.19997
494.457	1519.2086
494.665	1485.36789
494.874	1565.7392
495.083	1650.33829
495.291	1485.36789
495.5	1445.18191
495.709	1627.07387
495.917	1443.06686
496.126	1658.79801
496.335	1574.19924
496.543	1576.31424
496.752	1658.79801
496.96	1781.45845
497.169	1726.47413
497.377	1679.94712
497.586	1586.88925
497.794	1806.83493
498.003	1720.12963
498.211	1916.79194
498.42	1688.40669
498.628	1866.04422
498.837	1866.04422
499.045	1916.79194
499.254	1815.29362
499.462	1887.18947
499.671	1825.86688
499.879	2041.53246
500.087	1844.89847
500.296	1959.07927
500.504	1840.66926
500.713	2115.52001
500.921	1927.36399
501.129	2003.47836
501.338	1946.39331
501.546	2233.88016
501.754	1950.62199
501.962	2130.31642
502.171	1990.79319
502.379	2115.52001
502.587	2062.67266
502.795	2356.43819
503.004	1891.41846
503.212	2347.98695
503.42	2090.15386
503.628	2514.86798
503.837	2079.58431
504.045	2466.28931
504.253	2223.31337
504.461	2523.31584
504.669	2396.57938
504.877	2297.27621
505.085	2432.49201
505.294	2470.51378
505.502	2293.05007
505.71	2542.32283
505.918	2231.76682
506.126	2371.22748
506.334	2255.01309
506.542	2540.21099
506.75	2428.26715
506.958	2495.85964
507.166	2588.78038
507.374	2704.89834
507.582	2474.7382
507.79	2523.31584
507.998	2504.30791
508.206	2747.11346
508.414	2489.52333
508.622	2626.78678
508.83	2622.56404
509.037	2643.67723
509.245	2548.65829
509.453	2761.8875
509.661	2766.10854
509.869	2926.46674
510.077	2540.21099
510.285	2854.7376
510.492	2953.88814
510.7	2812.53633
510.908	2609.89553
511.116	2880.05567
511.324	2751.33469
511.531	2812.53633
511.739	2732.33877
511.947	2926.46674
512.155	2778.77132
512.362	2892.71392
512.57	2694.34375
512.778	2930.68558
512.985	2985.52509
513.193	2998.17893
513.401	3055.11439
513.608	3067.76519
513.816	2774.55044
514.024	3050.89734
514.231	2907.48124
514.439	3053.00587
514.646	2998.17893
514.854	3097.28152
515.061	3143.65804
515.269	2981.30703
515.477	3166.84339
515.684	3175.27393
515.892	3006.61452
516.099	3120.47075
516.307	3177.38153
516.514	3310.12659
516.722	3217.42273
516.929	3388.05646
517.136	3097.28152
517.344	3415.43154
517.551	3249.02998
517.759	3124.68676
517.966	3316.44611
518.173	3512.27294
518.381	3364.89061
518.588	3267.99252
518.796	3282.74022
519.003	3402.79726
519.21	3362.78452
519.418	3472.27785
519.625	3362.78452
519.832	3606.9717
520.039	3350.1476
520.247	3697.42617
520.454	3543.84335
520.661	3640.63327
520.868	3529.11101
521.076	3716.35404
521.283	3573.30533
521.49	3482.80351
521.697	3503.85347
521.904	3678.49675
522.112	3600.65962
522.319	3794.15212
522.526	3783.64043
522.733	3810.96981
522.94	3861.4153
523.147	3869.82177
523.354	3667.97974
523.561	3739.48598
523.768	3630.11455
523.975	3810.96981
524.183	3716.35404
524.39	3943.3647
524.597	3848.805
524.804	3953.86882
525.011	3874.02489
525.218	4027.38336
525.425	3895.03926
525.632	3901.34318
525.838	3890.83655
526.045	3930.75909
526.252	3876.12641
526.459	4203.71478
526.666	3892.93792
526.873	4163.84324
527.08	3850.90677
527.287	3974.87552
527.494	3941.26382
527.701	4128.16224
527.907	3876.12641
528.114	4321.18623
528.321	4008.48201
528.528	4272.94715
528.735	4226.79482
528.941	4195.32141
529.148	4079.87833
529.355	4159.64579
529.562	4151.25064
529.768	4514.02768
529.975	4193.22301
530.182	4316.99198
530.388	4050.48274
530.595	4205.81308
530.802	4226.79482
531.008	4463.73908
531.215	4329.57447
531.422	4384.0896
531.628	4472.12139
531.835	4537.07237
532.042	4329.57447
532.248	4658.53624
532.455	4495.17094
532.661	4599.90788
532.868	4411.34166
533.074	4863.59628
533.281	4281.33737
533.487	4629.22425
533.694	4597.81369
533.9	4838.4986
534.107	4444.87758
534.313	4738.07513
534.52	4662.72331
534.726	4938.86954
534.933	4708.77511
535.139	4813.39764
535.345	4666.91028
535.552	4627.13037
535.758	4779.9246
535.965	5093.50424
536.171	4788.29341
536.377	4805.02993
536.584	4738.07513
536.79	4892.87274
536.996	4832.22367
537.203	4871.96144
537.409	4620.84859
537.615	4997.39483
537.821	4874.05267
538.028	5147.80526
538.234	4999.48468
538.44	5291.83548
538.646	4999.48468
538.853	5024.56114
539.059	4867.7789
539.265	5016.20269
539.471	5041.27694
539.677	5043.36631
539.883	4980.67516
540.09	5168.68608
540.296	4989.03518
540.502	5273.05523
540.708	5141.54056
540.914	5537.88959
541.12	5262.62094
541.326	5448.26369
541.532	5239.66345
541.738	5252.18607
541.944	5202.09056
542.15	5508.71385
542.356	5408.6477
542.562	5423.24405
542.768	5341.90686
542.974	5525.38627
543.18	5564.97722
543.386	5673.2879
543.592	5298.09514
543.798	5431.58431
544.004	5706.60143
544.21	5489.95557
544.415	5358.59432
544.621	5656.62887
544.827	5535.80576
545.033	5866.83829
545.239	5498.29282
545.445	5785.69685
545.651	5391.96474
545.856	5725.33763
546.062	5554.55937
546.268	5750.31627
546.474	5406.56241
546.679	5589.97765
546.885	5314.78654
547.091	5769.04801
547.297	5268.88159
547.502	5952.10213
547.708	5606.64272
547.914	5737.82738
548.119	5629.55473
548.325	5812.74798
548.531	5687.86331
548.736	5889.71784
548.942	5710.7652
549.147	5554.55937
549.353	5920.91264
549.559	5891.79766
549.764	5725.33763
549.97	6064.34039
550.175	5925.07155
550.381	6058.10673
550.586	5804.42498
550.792	6338.41206
550.997	5916.75364
551.203	6118.35654
551.408	5927.15096
551.614	6232.56916
551.819	6242.94861
552.025	6114.20202
552.23	6089.2729
552.435	6157.81984
552.641	6282.38516
552.846	6496.02612
553.052	6114.20202
553.257	6257.47885
553.462	6408.94023
553.668	6332.18769
553.873	6205.57986
554.078	6342.56152
554.283	6209.73232
554.489	6371.60515
554.694	6213.88468
554.899	6359.15844
555.105	6384.05101
555.31	6363.30743
555.515	6535.40866
555.72	6535.40866
555.925	6259.5545
556.131	6450.41482
556.336	6431.75241
556.541	6686.64292
556.746	6228.41722
556.951	6269.93243
557.156	6471.14862
557.361	6493.95312
557.567	6373.67952
557.772	6469.07534
557.977	6371.60515
558.182	6440.04704
558.387	6471.14862
558.592	6504.31787
558.797	6394.42193
559.002	6779.80846
559.207	6678.35929
559.412	6437.97342
559.617	6558.20526
559.822	6694.92618
560.027	6554.06063
560.232	6794.29671
560.437	6516.75481
560.642	6862.58343
560.847	6620.36358
561.051	6738.40728
561.256	6674.21733
561.461	6705.27974
561.666	6657.6486
561.871	6874.99654
562.076	6721.84424
562.281	6810.85335
562.485	6757.03894
562.69	6761.17906
562.895	6748.75843
563.1	6827.40852
563.305	6682.50115
563.509	6986.67779
563.714	6821.2005
563.919	6872.92774
564.123	6922.57254
564.328	6827.40852
564.533	6829.47782
564.737	6891.54607
564.942	6920.50427
565.147	6934.98171
565.351	6810.85335
565.556	6895.68323
565.761	6910.16257
565.965	6990.81287
566.17	6939.11791
566.374	7071.42892
566.579	7017.68868
566.784	7065.2289
566.988	6874.99654
567.193	7137.54999
567.397	7017.68868
567.602	7271.78835
567.806	6831.54709
568.011	7127.22008
568.215	7234.62401
568.42	7323.39367
568.624	7232.55911
568.828	7127.22008
569.033	6812.92282
569.237	7102.42602
569.442	7191.25656
569.646	7271.78835
569.85	7061.09544
570.055	7193.3219
570.259	6990.81287
570.463	7399.74443
570.668	6930.84541
570.872	7364.66806
571.076	7195.38722
571.281	7372.92189
571.485	7267.65933
571.689	7282.11051
571.893	7205.71346
572.098	7447.19068
572.302	7135.48405
572.506	7211.90894
572.71	7300.68902
572.914	7438.93998
573.119	7350.22302
573.323	7743.98728
573.527	7405.93372
573.731	7374.98529
573.935	7488.43898
574.139	7383.23868
574.343	7374.98529
574.547	7807.82356
574.751	7407.99677
574.955	7599.7664
575.159	7568.84839
575.364	7612.13226
575.568	7511.12187
575.772	7704.85185
575.976	7370.85846
576.18	7337.8407
576.383	7284.17488
576.587	7743.98728
576.791	7364.66806
576.995	7597.70535
577.199	7465.75349
577.403	7682.19102
577.607	7449.2533
577.811	7760.46308
578.015	7422.43755
578.219	7783.11513
578.422	7511.12187
578.626	7949.83909
578.83	7548.2337
579.034	7739.86812
579.238	7496.68761
579.442	7754.28482
579.645	7533.80215
579.849	8028.00876
580.053	7834.58765
580.257	7706.9118
580.46	7787.23341
580.664	8048.57485
580.868	7692.49172
581.071	7923.09005
581.275	7562.66421
581.479	7927.20551
581.682	7859.28984
581.886	7978.64187
582.09	7896.33754
582.293	8122.59603
582.497	8023.8953
582.7	8056.80072
582.904	7785.17428
583.107	8073.25148
583.311	7776.93755
583.515	7916.9167
583.718	7844.88059
583.922	8169.87372
584.125	7912.80103
584.329	8157.54143
584.532	7986.8705
584.735	8182.20529
584.939	8102.03721
585.142	8301.37376
585.346	8036.23544
585.549	8028.00876
585.753	8151.37501
585.956	8151.37501
586.159	8114.37274
586.363	8668.742
586.566	8077.36397
586.769	8208.92125
586.973	8069.13891
587.176	8256.17974
587.379	7958.06886
587.582	8282.88645
587.786	8097.9252
587.989	8116.42859
588.192	8385.57375
588.395	8385.57375
588.599	8319.85949
588.802	8566.18641
589.005	8303.42781
589.208	8412.2645
589.411	8330.12866
589.615	8268.50632
589.818	8305.48184
590.021	8377.36056
590.224	8143.15285
590.427	8666.69135
590.63	8443.05748
590.833	8412.2645
591.036	8475.89856
591.239	8611.31663
591.442	8430.74081
591.645	8676.94444
591.848	8568.23798
592.051	8560.03158
592.254	8340.39734
592.457	8498.47397
592.66	8387.627
592.863	8594.90669
593.066	8551.82488
593.269	8697.44923
593.472	8420.47638
593.675	8765.102
593.878	8804.04456
594.081	8914.6878
594.284	8428.68796
594.486	8748.70316
594.689	8758.95257
594.892	8512.83893
595.095	8670.79264
595.298	8826.58725
595.5	8750.75308
595.703	8797.89617
595.906	8650.28544
596.109	9035.51646
596.311	8742.5533
596.514	8658.48854
596.717	8623.62329
596.92	9092.83755
597.122	8642.08204
597.325	8902.39669
597.528	8738.45329
597.73	9107.1657
597.933	8910.59083
598.136	8873.71493
598.338	8926.97827
598.541	9047.80069
598.743	8984.32536
598.946	8963.84585
599.148	8662.58998
599.351	8886.00754
599.554	9168.56254
599.756	9031.42157
599.959	8898.29951
600.161	9012.99372
600.363	8931.07495
600.566	9094.88448
600.768	8894.20226
600.971	9238.1271
601.173	8961.7978
601.376	9189.02474
601.578	9015.04133
601.78	9184.93243
601.983	9082.60264
602.185	9258.58356
602.388	9121.49301
602.59	9313.80763
602.792	9369.01963
602.995	9321.98795
603.197	9117.39958
603.399	9180.84006
603.601	8836.83321
603.804	8896.25089
604.006	9074.41439
604.208	9297.44621
604.41	9086.69665
604.613	9264.72016
604.815	9025.27911
605.017	9434.44059
605.219	9246.30988
605.421	9078.50855
605.623	9062.13151
605.826	9330.168
606.028	9330.168
606.23	9444.66111
606.432	9180.84006
606.634	9371.06428
606.836	9125.58637
607.038	9420.13117
607.24	9193.11697
607.442	9229.94405
607.644	9285.17444
607.846	9413.99833
608.048	9252.44679
608.25	9467.14483
608.452	9144.00565
608.654	9248.35554
608.856	9234.03561
609.058	9264.72016
609.26	9205.39327
609.462	9215.62306
609.664	9295.40096
609.866	9231.98984
610.067	9131.72629
610.269	9360.84083
610.471	8972.03786
610.673	9391.50996
610.875	9193.11697
611.077	9458.96916
611.278	9279.03833
611.48	9483.49541
611.682	9254.4924
611.884	9655.11511
612.085	9424.21966
612.287	9446.70516
612.489	9203.34727
612.69	9544.80095
612.892	9430.35226
613.094	9546.84423
613.295	9469.18871
613.497	9352.66177
613.699	9291.3104
613.9	9270.85662
614.102	9197.20914
614.304	9405.82097
614.505	9207.43926
614.707	9315.85274
614.908	9170.60884
615.11	9328.12301
615.311	9313.80763
615.513	9379.24275
615.714	9289.2651
615.916	9450.79323
616.117	9442.61703
616.319	9461.0131
616.52	9330.168
616.722	9610.17782
616.923	9610.17782
617.124	9640.8177
617.326	9154.23799
617.527	9465.10094
617.729	9524.36737
617.93	9348.57214
618.131	9422.17543
618.333	9191.07086
618.534	9213.57713
618.735	9681.66544
618.937	9401.73219
619.138	9632.64741
619.339	9281.08372
619.54	9397.64335
619.742	9172.65511
619.943	9661.24234
620.144	9295.40096
620.345	9501.88858
620.546	9483.49541
620.748	9698.00281
620.949	9362.88555
621.15	9595.87801
621.351	9338.34778
621.552	9563.18983
621.753	9377.19816
621.954	9422.17543
622.155	9510.06291
622.356	9875.60894
622.558	9669.41177
622.759	9579.53442
622.96	9217.66896
623.161	9385.37643
623.362	9307.67222
623.563	9753.13419
623.764	9693.91856
623.965	9930.70513
624.166	9689.83425
624.366	9495.75767
624.567	9638.77515
624.768	9928.66472
624.969	9434.44059
625.17	9467.14483
625.371	9508.01935
625.572	9557.06035
625.773	9328.12301
625.973	9418.08691
626.174	9391.50996
626.375	9491.67031
626.576	9585.66338
626.777	9975.59045
626.977	9606.09224
627.178	9634.69001
627.379	9577.4914
627.58	9540.71436
627.78	9418.08691
627.981	9646.94526
628.182	9671.45409
628.382	9614.26334
628.583	9403.77659
628.784	9702.087
628.984	9381.28733
629.185	9934.78591
629.386	9800.08922
629.586	9944.98759
629.787	9698.00281
629.987	9853.15926
630.188	9708.21316
630.388	9626.51953
630.589	9749.05076
630.79	9802.13056
630.99	9642.86024
631.191	9687.79207
631.391	9655.11511
631.591	9597.92088
631.792	9281.08372
631.992	9651.03022
632.193	9646.94526
632.393	9767.4257
632.594	9614.26334
632.794	9671.45409
632.994	9514.14997
633.195	9646.94526
633.395	9542.75767
633.595	9877.64973
633.796	9704.12907
633.996	9747.00903
634.196	9889.89417
634.397	10075.53725
634.597	9769.46728
634.797	10026.588
634.997	9573.40532
635.198	10087.77329
635.398	9744.96728
635.598	9900.09746
635.798	9747.00903
635.998	9738.84193
636.199	9589.74928
636.399	9922.54341
636.599	9724.54894
636.799	10012.30959
636.999	9685.74988
637.199	9826.6255
637.399	9516.19348
637.599	9975.59045
637.799	9409.90968
637.999	10122.43931
638.199	10140.79027
638.399	9920.50294
638.599	9793.9651
638.799	9977.63053
638.999	9949.06816
639.199	9981.71063
639.399	9653.07267
639.599	10097.9696
639.799	9622.43419
639.999	9969.47014
640.199	9883.77201
640.399	10079.61599
640.599	9532.54099
640.799	9981.71063
640.998	9961.30952
641.198	9891.93485
641.398	9761.30085
641.598	10224.37491
641.798	10089.81258
641.997	10081.65534
642.197	9832.7489
642.397	10065.34017
642.597	9998.03048
642.796	10093.89112
642.996	9947.02788
643.196	10283.48188
643.395	9936.82627
643.595	10002.1103
643.795	10028.62772
643.994	10075.53725
644.194	9820.50197
644.394	10246.79614
644.593	10042.90533
644.793	9957.22912
644.992	9800.08922
645.192	10018.429
645.392	9804.17189
645.591	10042.90533
645.791	10097.9696
645.99	10301.82311
646.19	9859.28208
646.389	9975.59045
646.589	9806.2132
646.788	10067.37961
646.987	10138.75133
647.187	10267.17765
647.386	10049.02409
647.586	10120.40025
647.785	10030.66742
647.984	10153.02362
648.184	9918.46246
648.383	10242.71967
648.582	9814.3783
648.782	10301.82311
648.981	10063.30071
649.18	10285.51985
649.38	10206.02905
649.579	10287.5578
649.778	10063.30071
649.977	10250.87255
650.177	10267.17765
650.376	10517.7618
650.575	10173.41143
650.774	10163.2177
650.973	10061.26123
651.173	10385.36397
651.372	10232.52828
651.571	10424.07052
651.77	10246.79614
651.969	10401.66204
652.168	10063.30071
652.367	10179.5275
652.566	10124.47836
652.765	10161.17891
652.964	10199.91351
653.163	10130.59544
653.362	10340.53994
653.561	10550.34374
653.76	10234.56658
653.959	10104.08722
654.158	10153.02362
654.357	10218.25975
654.556	10063.30071
654.755	10128.55643
654.954	10146.90701
655.153	10324.2387
655.352	10153.02362
655.551	10287.5578
655.749	10301.82311
655.948	10305.89879
656.147	10350.72778
656.346	10426.10758
656.545	9940.90696
656.743	10297.74738
656.942	9857.24115
657.141	10529.98041
657.34	10040.86572
657.538	10432.21867
657.737	10252.91073
657.936	10373.13987
658.135	10271.25378
658.333	10177.48882
658.532	9902.13807
658.731	10108.16556
658.929	9969.47014
659.128	10189.72068
659.326	10360.91529
659.525	10643.999
659.724	10132.63443
659.922	10142.8292
660.121	10110.20471
660.319	10373.13987
660.518	10083.69467
660.716	10195.83642
660.915	10348.69024
661.113	10505.54273
661.312	10269.21572
661.51	10529.98041
661.709	10312.01222
661.907	10226.41327
662.105	10234.56658
662.304	10527.944
662.502	10334.42708
662.701	10474.99306
662.899	10163.2177
663.097	10536.08954
663.296	10397.5876
663.494	10625.67721
663.692	10246.79614
663.891	10236.60488
664.089	10136.71238
664.287	10348.69024
664.485	10165.25647
664.684	10521.83472
664.882	10026.588
665.08	10458.69873
665.278	10144.86811
665.476	10077.57663
665.675	10163.2177
665.873	10293.67159
666.071	10163.2177
666.269	10193.79785
666.467	9916.42196
666.665	10230.48996
666.863	10063.30071
667.061	10212.14446
667.259	10364.9902
667.457	10381.28932
667.655	10165.25647
667.853	10206.02905
668.051	10222.33654
668.249	10291.63367
668.447	10097.9696
668.645	9991.91065
668.843	10259.0252
669.041	10472.95632
669.239	9875.60894
669.437	10144.86811
669.635	10177.48882
669.833	10375.17725
670.031	10049.02409
670.229	10373.13987
670.426	10303.86096
670.624	10324.2387
670.822	10077.57663
671.02	10419.99637
671.218	10246.79614
671.415	10287.5578
671.613	10087.77329
671.811	10332.38943
672.009	10108.16556
672.206	10287.5578
672.404	10024.54827
672.602	10136.71238
672.799	10063.30071
672.997	10018.429
673.195	10020.46877
673.392	10095.93037
673.59	9979.67059
673.788	10203.99055
673.985	9973.55036
674.183	10369.06506
674.38	10010.26976
674.578	10201.95204
674.775	10018.429
674.973	10055.14273
675.17	10144.86811
675.368	10038.82609
675.565	10095.93037
675.763	10022.50853
675.96	9953.14867
676.158	10252.91073
676.355	9912.34092
676.553	10346.65268
676.75	9928.66472
676.947	9883.77201
677.145	9889.89417
677.342	10250.87255
677.539	10034.74678
677.737	10326.2764
677.934	9932.74553
678.131	10440.36661
678.329	10112.24384
678.526	10238.64316
678.723	9959.26933
678.92	9983.75066
679.118	9796.00649
679.315	10020.46877
679.512	10106.1264
679.709	10120.40025
679.906	9914.38145
680.104	10055.14273
680.301	9814.3783
680.498	10008.22992
680.695	9798.04786
680.892	10106.1264
681.089	9885.81275
681.286	9969.47014
681.483	9881.73127
681.68	9877.64973
681.877	9559.10352
682.075	9875.60894
682.272	9538.67104
682.469	9798.04786
682.665	9597.92088
682.862	9940.90696
683.059	9626.51953
683.256	9934.78591
683.453	9573.40532
683.65	9934.78591
683.847	9683.70767
684.044	9912.34092
684.241	9389.46547
684.438	9879.69051
684.635	9567.27607
684.831	9861.32299
685.028	9540.71436
685.225	9791.9237
685.422	9642.86024
685.619	9704.12907
685.815	9426.26388
686.012	9771.50885
686.209	9624.47687
686.405	9847.03631
686.602	9589.74928
686.799	9644.90275
686.996	9575.44837
687.192	9916.42196
687.389	9779.67497
687.586	9689.83425
687.782	9638.77515
687.979	9977.63053
688.175	9407.86533
688.372	9849.07731
688.568	9593.83511
688.765	9587.70634
688.962	9303.58187
689.158	9491.67031
689.355	9489.62661
689.551	9508.01935
689.748	9229.94405
689.944	9499.84496
690.14	9434.44059
690.337	9497.80132
690.533	9581.57742
690.73	9548.88748
690.926	9481.45164
691.123	9651.03022
691.319	9340.39269
691.515	9634.69001
691.712	9193.11697
691.908	9679.6232
692.104	9544.80095
692.301	9567.27607
692.497	9475.32025
692.693	9446.70516
692.889	9383.33189
693.086	9471.23257
693.282	9375.15355
693.478	9555.01715
693.674	9383.33189
693.87	9399.68778
694.067	9127.63303
694.263	9354.70656
694.459	9141.95913
694.655	9256.53799
694.851	9397.64335
695.047	9373.10893
695.243	9266.76567
695.439	9319.94289
695.635	9154.23799
695.831	9493.714
696.027	9266.76567
696.224	9223.80658
696.42	9168.56254
696.615	9646.94526
696.811	9125.58637
697.007	9299.49145
697.203	9123.5397
697.399	9111.2593
697.595	8879.86131
697.791	9152.19155
697.987	9025.27911
698.183	9379.24275
698.379	9205.39327
698.575	9597.92088
698.77	9313.80763
698.966	9264.72016
699.162	9053.94258
699.358	9281.08372
699.554	8851.17679
699.749	8978.18169
699.945	8734.35322
700.141	8830.68569
700.337	8886.00754
700.532	9295.40096
700.728	9058.03708
700.924	9475.32025
701.119	9109.21251
701.315	9274.94751
701.511	9017.08892
701.706	9199.2552
701.902	8980.2296
702.097	9565.23296
702.293	8900.34811
702.489	9031.42157
702.684	8746.65323
702.88	8877.81254
703.075	8961.7978
703.271	8943.36457
703.466	9049.84801
703.662	9260.62911
703.857	8914.6878
704.053	9148.09864
704.248	8969.98989
704.443	9201.30124
704.639	8996.61222
704.834	9344.48245
705.03	9062.13151
705.225	9090.7906
705.42	8847.07872
705.616	8896.25089
705.811	8947.46096
706.006	9092.83755
706.202	8904.44525
706.397	8939.2681
706.592	8779.45002
706.787	9006.85079
706.983	8826.58725
707.178	9045.75336
707.373	8830.68569
707.568	9055.98984
707.763	8705.65064
707.959	9035.51646
708.154	8697.44923
708.349	8748.70316
708.544	8881.91007
708.739	8804.04456
708.934	8646.18377
709.129	9101.02517
709.324	8836.83321
709.519	8939.2681
709.714	8562.08321
709.909	8855.2748
710.104	8447.16288
710.299	8806.09398
710.494	8430.74081
710.689	8906.4938
710.884	8713.85174
711.079	8830.68569
711.274	8553.87658
711.469	8834.78406
711.664	8752.80298
711.859	9019.1365
712.054	8701.54997
712.249	8635.92929
712.443	8395.83981
712.638	8713.85174
712.833	8642.08204
713.028	8754.85286
713.223	8252.07072
713.417	8640.03114
713.612	8256.17974
713.807	8838.88235
714.002	8607.21425
714.196	8773.30098
714.391	8644.13292
714.586	8672.84326
714.78	8457.42605
714.975	8869.61725
715.17	8336.28992
715.364	8525.15102
715.559	8633.87834
715.754	8674.89386
715.948	8397.89296
716.143	8619.52115
716.337	8484.10806
716.532	8562.08321
716.726	8443.05748
716.921	8434.84644
717.115	8471.79369
717.31	8681.04555
717.504	8301.37376
717.699	8769.20152
717.893	8190.42594
718.088	8436.89923
718.282	8461.53119
718.476	8533.35871
718.671	8391.73345
718.865	8644.13292
719.059	8414.3175
719.254	8681.04555
719.448	8441.00475
719.642	8377.36056
719.837	8173.98432
720.031	8375.30721
720.225	8204.81132
720.419	8352.71911
720.614	8270.56069
720.808	8136.98601
721.002	8208.92125
721.196	8401.99921
721.39	8081.47638
721.585	8328.07486
721.779	8344.50467
721.973	8332.18243
722.167	8060.91353
722.361	8410.21148
722.555	8108.20507
722.749	8032.12214
722.943	8073.25148
723.137	8169.87372
723.331	8001.26982
723.525	8056.80072
723.719	7770.75978
723.913	8118.48443
724.107	8073.25148
724.301	8289.04906
724.495	7879.87272
724.689	8108.20507
724.883	7937.49381
725.077	7881.9309
725.271	7608.01039
725.465	7883.98905
725.659	7575.03237
725.853	8089.70095
726.046	7958.06886
726.24	8089.70095
726.434	7686.31136
726.628	8087.64484
726.822	7805.76464
727.015	7982.75623
727.209	7929.26321
727.403	7719.27105
727.596	7537.92556
727.79	7795.46972
727.984	8054.74428
728.177	8167.81839
728.371	7583.27739
728.565	7855.17302
728.758	7995.0988
728.952	8099.98122
729.146	7760.46308
729.339	8015.66814
729.533	7962.18363
729.726	8118.48443
729.92	8048.57485
730.113	8227.41495
730.307	8097.9252
730.5	8143.15285
730.694	7750.16586
730.887	8147.26397
731.081	7857.23144
731.274	8046.51833
731.468	7892.22146
731.661	8095.86917
731.854	8108.20507
732.048	8408.15844
732.241	7916.9167
732.435	8264.39754
732.628	8028.00876
732.821	8262.34312
733.014	7958.06886
733.208	8073.25148
733.401	7894.27951
733.594	7871.63982
733.788	7974.52743
733.981	7990.98469
734.174	7803.7057
734.367	7799.58775
734.56	7811.94134
734.754	7634.80102
734.947	7612.13226
735.14	7883.98905
735.333	7892.22146
735.526	7883.98905
735.719	7896.33754
735.912	7441.00269
736.105	7688.3715
736.298	7772.81906
736.491	7708.97173
736.684	7844.88059
736.877	7640.98296
737.07	7861.34822
737.263	7809.88246
737.456	7945.72408
737.649	7945.72408
737.842	8145.20842
738.035	7974.52743
738.228	7984.81337
738.421	7754.28482
738.614	7731.62954
738.807	7544.11051
739	7302.75319
739.192	7397.68128
739.385	7560.60277
739.578	7686.31136
739.771	7842.82204
739.964	7393.55494
740.156	7620.37574
740.349	7313.0737
740.542	7669.82949
740.735	7261.46564
740.927	7474.00306
741.12	7476.0654
741.313	7504.93589
741.505	7663.64844
741.698	7405.93372
741.891	7509.0599
742.083	7434.8145
742.276	7521.43141
742.468	7620.37574
742.661	7519.36954
742.854	7746.04683
743.046	7548.2337
743.239	7438.93998
743.431	7622.43656
743.624	7546.17212
743.816	7391.49173
744.009	7292.43213
744.201	7335.7769
744.393	7339.90447
744.586	7166.47078
744.778	7494.62548
744.971	7424.50043
745.163	7502.87385
745.355	7488.43898
745.548	7228.42926
745.74	7453.37848
745.932	7209.84381
746.125	7168.53638
746.317	7230.4942
746.509	7168.53638
746.702	7539.98723
746.894	7397.68128
747.086	7568.84839
747.278	7339.90447
747.471	7346.09567
747.663	7174.73306
747.855	7476.0654
748.047	7323.39367
748.239	7554.41833
748.431	7302.75319
748.623	7265.59479
748.815	7141.6818
749.008	7480.19001
749.2	7562.66421
749.392	7308.94556
749.584	7282.11051
749.776	7393.55494
749.968	7166.47078
750.16	7430.68894
750.352	7193.3219
750.544	7368.79502
750.736	7311.00964
750.928	7533.80215
751.12	7133.41809
751.311	7263.53023
751.503	7261.46564
751.695	7174.73306
751.887	7059.02867
752.079	7046.62762
752.271	7209.84381
752.463	7249.07766
752.654	7100.3597
752.846	7335.7769
753.038	6930.84541
753.23	7449.2533
753.421	7104.49231
753.613	7025.9574
753.805	7059.02867
753.997	6777.73862
754.188	7187.12582
754.38	6926.70902
754.572	7131.35211
754.763	7228.42926
754.955	6943.25403
755.146	7226.36429
755.338	6928.77723
755.53	7092.09421
755.721	7048.69452
755.913	7083.82836
756.104	7009.41961
756.296	7028.02452
756.487	7075.56216
756.679	6994.94786
756.87	6587.21506
757.062	6872.92774
757.253	6556.13295
757.445	6769.45902
757.636	6928.77723
757.827	6792.22703
758.019	6835.68556
758.21	6607.93357
758.401	6543.69865
758.593	6632.79275
758.784	6970.13658
758.975	6912.23095
759.167	6732.19631
759.358	6796.36637
759.549	6649.36369
759.74	6684.57204
759.932	6433.8261
760.123	6696.99694
760.314	6614.14868
760.505	6711.4916
760.696	6288.61122
760.888	6580.99905
761.079	6537.48119
761.27	6777.73862
761.461	6684.57204
761.652	6752.89873
761.843	6634.8642
762.034	6427.60495
762.225	6298.9875
762.416	6419.30975
762.607	6392.34779
762.798	6245.02443
762.989	6388.19945
763.18	6587.21506
763.371	5991.6012
763.562	6527.11829
763.753	6255.40317
763.944	6334.2625
764.135	6139.12776
764.326	6388.19945
764.517	6213.88468
764.708	6541.62619
764.899	6257.47885
765.089	6330.11285
765.28	6176.51002
765.471	6435.89977
765.662	6207.6561
765.853	6083.04009
766.043	6076.80707
766.234	6284.46054
766.425	5895.95723
766.615	6359.15844
766.806	5964.57644
766.997	6105.89269
767.187	5981.20753
767.378	6340.4868
767.569	5875.15846
767.759	6134.9737
767.95	5966.65541
768.141	6035.24817
768.331	6126.66531
768.522	5875.15846
768.712	5997.83712
768.903	5977.0499
769.093	6008.22984
769.284	6134.9737
769.474	6099.66044
769.665	5823.1512
769.855	5860.59791
770.046	5943.78545
770.236	5873.07845
770.426	5794.0207
770.617	5922.9921
770.807	5898.03698
770.998	5777.37262
771.188	6029.01353
771.378	5679.53465
771.569	5814.82867
771.759	5873.07845
771.949	5746.1534
772.139	5941.70622
772.33	5806.50577
772.52	5806.50577
772.71	5806.50577
772.9	5710.7652
773.09	6047.71683
773.281	5952.10213
773.471	5864.75819
773.661	5835.63429
773.851	5637.88566
774.041	5623.30628
774.231	5860.59791
774.421	5683.69903
774.611	5725.33763
774.802	5650.38134
774.992	5706.60143
775.182	5444.09399
775.372	5631.63749
775.562	5473.27995
775.752	5625.38912
775.942	5366.93749
776.131	5631.63749
776.321	5248.01196
776.511	5398.22103
776.701	5308.52744
776.891	5456.60282
777.081	5396.13562
777.271	5429.49928
777.461	5439.92419
777.651	5579.56122
777.84	5364.85174
778.03	5429.49928
778.22	5387.79377
778.41	5456.60282
778.599	5431.58431
778.789	5358.59432
778.979	5298.09514
779.169	5250.09903
779.358	5343.99288
779.548	5421.15893
779.738	5181.21346
779.927	5431.58431
780.117	5419.07378
780.307	5333.56257
780.496	5018.29234
780.686	5427.41423
780.875	5080.97101
781.065	5227.13999
781.254	5007.84387
781.444	5089.32659
781.633	4934.68847
781.823	5035.00869
782.012	5032.91922
782.202	5218.79056
782.391	4838.4986
782.581	4966.04424
782.77	4999.48468
782.96	5200.00295
783.149	4823.85678
783.338	4976.49501
783.528	4878.23507
783.717	5097.6818
783.906	4997.39483
784.096	5035.00869
784.285	4805.02993
784.474	4748.53835
784.663	4880.32623
784.853	4796.66185
785.042	4729.70415
785.231	4771.55543
785.42	4641.78707
785.61	4731.79693
785.799	4681.564
785.988	4694.12345
786.177	4767.37071
786.366	4673.19058
786.555	4796.66185
786.744	4815.48952
786.933	4507.7423
787.122	4648.06818
787.312	4581.05933
787.501	4681.564
787.69	4574.77608
787.879	5030.82974
788.068	4388.28246
788.257	4666.91028
788.445	4654.34908
788.634	4773.64776
788.823	4606.19033
789.012	4861.50493
789.201	4497.26622
789.39	4449.06918
789.579	4625.03647
789.768	4723.42567
789.957	4570.58713
790.145	4639.69332
790.334	4463.73908
790.523	4679.47068
790.712	4599.90788
790.9	4894.96374
791.089	4681.564
791.278	4712.9611
791.467	4516.12276
791.655	4530.78772
791.844	4432.30227
792.033	4478.4079
792.221	4136.55832
792.41	4442.78175
792.599	4304.40871
792.787	4482.59879
792.976	4193.22301
793.164	4402.9568
793.353	4298.11678
793.541	4369.41389
793.73	4348.44675
793.918	4367.31728
794.107	4060.98163
794.295	4373.60706
794.484	4220.50052
794.672	4239.38284
794.861	4178.53364
795.049	4426.01431
795.238	4335.86542
795.426	4310.70044
795.614	4212.10782
795.803	4583.1537
795.991	4419.72616
796.179	4348.44675
796.368	4109.26985
796.556	4218.40238
796.744	4063.08135
796.932	4098.77335
797.121	3869.82177
797.309	3962.27174
797.497	3806.76551
797.685	4147.05294
797.874	4075.67921
798.062	4300.21411
798.25	4115.56751
798.438	4050.48274
798.626	3949.66723
798.814	4157.54703
799.002	4018.98297
799.19	4136.55832
799.378	3907.64693
799.566	4153.34946
799.755	3926.55706
799.943	4075.67921
800.131	4016.88282
800.318	4006.38176
800.506	3911.84932
800.694	3981.17714
800.882	3846.70321
801.07	3949.66723
801.258	3892.93792
801.446	4172.23788
801.634	3855.11024
801.822	3945.46556
802.01	3949.66723
802.197	4195.32141
802.385	3867.72018
802.573	3867.72018
802.761	3678.49675
802.949	4042.08325
803.136	3907.64693
803.324	3899.2419
803.512	3869.82177
803.699	4189.02616
803.887	3997.98055
804.075	4052.58256
804.262	3907.64693
804.45	3924.45602
804.638	3850.90677
804.825	4201.61647
805.013	3932.86008
805.201	4077.77878
805.388	3895.03926
805.576	4147.05294
805.763	3907.64693
805.951	4088.27633
806.138	4142.85515
806.326	4081.97786
806.513	4002.1812
806.701	3930.75909
806.888	3981.17714
807.075	4222.59864
807.263	3771.02575
807.45	3943.3647
807.638	3867.72018
807.825	4048.3829
808.012	4006.38176
808.2	4039.98333
808.387	3953.86882
808.574	3941.26382
808.761	3756.30773
808.949	3949.66723
809.136	3674.29
809.323	3916.05163
809.51	3630.11455
809.698	3932.86008
809.885	3575.40962
810.072	3913.95049
810.259	3909.74813
810.446	3815.17404
810.633	3972.77494
810.82	4069.38037
811.008	3773.12824
811.195	3913.95049
811.382	3794.15212
811.569	4119.76584
811.756	3997.98055
811.943	3895.03926
812.13	3840.39774
812.317	3966.47308
812.504	3951.76803
812.691	3892.93792
812.878	3924.45602
813.064	3974.87552
813.251	3964.37242
813.438	4256.16568
813.625	3953.86882
813.812	4243.57868
813.999	3895.03926
814.186	3920.25386
814.372	3976.97608
814.559	4000.08088
814.746	3573.30533
814.933	4058.88189
815.12	4050.48274
815.306	4069.38037
815.493	3857.21195
815.68	3974.87552
815.866	3817.27612
816.053	3974.87552
816.24	3840.39774
816.426	3932.86008
816.613	3726.86885
816.799	4004.28149
816.986	3792.04982
817.173	4067.28072
817.359	3777.33318
817.546	4025.28329
817.732	3693.21977
817.919	4073.57962
818.105	3798.35666
818.292	3895.03926
818.478	3693.21977
818.665	3918.15276
818.851	3823.58225
819.037	3905.5457
819.224	3684.80673
819.41	3806.76551
819.597	3539.6342
819.783	3823.58225
819.969	3634.3221
820.156	3953.86882
820.342	3657.46225
820.528	3827.78624
820.714	3722.66298
820.901	3907.64693
821.087	3667.97974
821.273	3842.49958
821.459	3733.1775
821.646	3731.07463
821.832	3491.22371
822.018	3937.06199
822.204	3583.82659
822.39	3871.92334
822.576	3585.93078
822.762	3903.44445
822.948	3642.73696
823.134	3777.33318
823.32	3493.32872
823.507	3701.6325
823.693	3636.42584
823.879	3672.1866
824.065	3535.42498
824.25	3573.30533
824.436	3514.37776
824.622	3625.90693
824.808	3564.88799
824.994	3573.30533
825.18	3341.72264
825.366	3617.49146
825.552	3331.19106
825.738	3564.88799
825.923	3423.85403
826.109	3345.93516
826.295	3213.20815
826.481	3520.69212
826.667	3478.5933
826.852	3438.59272
827.038	3322.76548
827.224	3421.74844
827.409	3423.85403
827.595	3743.69153
827.781	3232.17325
827.966	3497.53867
828.152	3371.20878
828.338	3381.73871
828.523	3440.69818
828.709	3640.63327
828.894	3339.61636
829.08	3449.11982
829.266	3312.23311
829.451	3337.51006
829.637	3177.38153
829.822	3516.48257
830.008	3082.52374
830.193	3520.69212
830.378	3124.68676
830.564	3360.67841
830.749	3101.49789
830.935	3263.77874
831.12	3171.05869
831.305	3234.2804
831.491	2993.96104
831.676	3192.13424
831.861	2972.87072
832.047	2993.96104
832.232	2905.37167
832.417	3069.8736
832.602	3116.25467
832.788	3204.77879
832.973	2899.04286
833.158	3133.1186
833.343	2968.65247
833.528	3270.09939
833.714	3362.78452
833.899	3261.67183
834.084	2842.07781
834.269	3152.0893
834.454	3076.19874
834.639	3175.27393
834.824	3059.33139
835.009	3343.82891
835.194	2896.93323
835.379	3312.23311
835.564	2966.54332
835.749	3053.00587
835.934	3057.2229
836.119	3031.91982
836.304	2755.55585
836.489	2869.50672
836.674	2882.16541
836.859	2871.61654
837.044	2839.96779
837.228	2951.77889
837.413	2863.17719
837.598	2958.10659
837.783	2736.56018
837.968	2932.79497
838.152	2713.34179
838.337	3059.33139
838.522	2892.71392
838.707	3116.25467
838.891	2677.45572
839.076	2799.87486
839.261	2478.96258
839.445	2867.39689
839.63	2747.11346
839.815	2755.55585
839.999	2766.10854
840.184	2820.97703
840.368	2605.6726
840.553	2787.2129
840.737	2626.78678
840.922	2656.34454
841.106	2497.97173
841.291	2694.34375
841.475	2525.42777
841.66	2833.63766
841.844	2407.14224
842.029	2799.87486
842.213	2584.55721
842.397	2740.78153
842.582	2381.79095
842.766	2688.01083
842.951	2588.78038
843.135	2645.78848
843.319	2419.81731
843.504	2525.42777
843.688	2502.19586
843.872	2685.89984
844.056	2652.12215
844.241	2711.23095
844.425	2432.49201
844.609	2643.67723
844.793	2561.32889
844.977	2493.74755
845.161	2299.38927
845.346	2305.72839
845.53	2248.67331
845.714	2550.77008
845.898	2246.56003
846.082	2371.22748
846.266	2339.53555
846.45	2417.70483
846.634	2189.49816
846.818	2436.71683
847.002	2206.40604
847.186	2489.52333
847.37	2233.88016
847.554	2371.22748
847.738	2172.58974
847.922	2267.69242
848.106	2191.61167
848.29	2280.37141
848.473	2172.58974
848.657	2153.56714
848.841	2098.60936
849.025	2316.29339
849.209	2206.40604
849.392	2449.39101
849.576	2261.35279
849.76	2227.54011
849.944	1950.62199
850.127	2043.64651
850.311	1904.1053
850.495	1997.13581
850.678	1908.3342
850.862	2269.8056
851.046	1984.45052
851.229	2014.04916
851.413	2020.39156
851.596	2206.40604
851.78	2003.47836
851.964	2164.13534
852.147	1800.49086
852.331	1975.99353
852.514	1798.37617
852.698	2088.03996
852.881	1933.70715
853.065	2208.51948
853.248	1978.10779
853.431	2145.11245
853.615	1688.40669
853.798	1891.41846
853.982	1667.25769
854.165	2081.69824
854.348	1783.57317
854.532	2246.56003
854.715	1891.41846
854.898	1992.9074
855.081	1722.24446
855.265	2090.15386
855.448	1838.55465
855.631	2037.30433
855.814	1764.54046
855.997	1959.07927
856.181	1675.71732
856.364	1929.47838
856.547	1603.80918
856.73	1882.96046
856.913	1705.32568
857.096	1933.70715
857.279	1811.06428
857.462	1895.64743
857.645	1840.66926
857.828	1927.36399
858.011	1870.27331
858.194	1823.75224
858.377	1529.78378
858.56	1785.6879
858.743	1701.09595
858.926	1830.09616
859.109	1671.48751
859.292	1715.89994
859.475	1692.63645
859.658	1749.73703
859.841	1459.98728
860.023	1732.8186
860.206	1671.48751
860.389	1690.52157
860.572	1506.51835
860.755	1646.10842
860.937	1487.48294
861.12	1468.44748
861.303	1563.62418
861.486	1557.27913
861.668	1350.00508
861.851	1491.71303
862.034	1309.81998
862.216	1536.12888
862.399	1250.60115
862.581	1432.4916
862.764	1373.27037
862.947	1426.14645
863.129	1299.24506
863.312	1493.82808
863.494	1375.3854
863.677	1424.0314
863.859	1392.3057
864.042	1417.68625
864.224	1400.76588
864.406	1510.74844
864.589	1282.3253
864.771	1385.96058
864.954	1214.64785
865.136	1510.74844
865.318	1240.02656
865.501	1527.66875
865.683	1191.38445
865.865	1303.47502
866.048	1252.71607
866.23	1208.30325
866.412	1123.71168
866.594	1212.53298
866.777	1193.49929
866.959	1379.61547
867.141	1180.81031
867.323	1375.3854
867.505	1087.76234
867.687	1309.81998
867.869	1142.74422
868.052	1153.318
868.234	1136.4
868.416	1311.93497
868.598	1108.90884
868.78	1250.60115
868.962	1149.08848
869.144	1337.31498
869.326	1117.36758
869.508	1284.44026
869.69	1106.79417
869.872	1341.54501
870.054	1163.89189
870.236	1242.14147
870.417	1104.6795
870.599	1223.10737
870.781	1182.92513
870.963	1231.56694
871.145	1155.43277
871.327	1256.94593
871.508	1180.81031
871.69	1113.1382
871.872	994.72417
872.054	1098.33553
872.235	965.1236
872.417	1132.17054
872.599	1121.59697
872.78	1240.02656
872.962	1138.51473
873.144	1070.8455
873.325	1070.8455
873.507	1252.71607
873.689	1081.41849
873.87	1220.99249
874.052	1062.38721
874.233	1259.06086
874.415	994.72417
874.596	1227.33715
874.778	952.43805
874.959	1096.22088
875.141	1030.6694
875.322	1214.64785
875.503	1123.71168
875.685	1172.35107
875.866	1062.38721
876.048	1206.18839
876.229	1062.38721
876.41	1159.66232
876.592	939.75276
876.773	1106.79417
876.954	903.81255
877.136	1106.79417
877.317	1062.38721
877.498	1191.38445
877.679	1149.08848
877.86	1161.7771
878.042	971.46647
878.223	1237.91165
878.404	988.38108
878.585	1210.41811
878.766	1098.33553
878.947	1130.05582
879.128	1064.50177
879.309	1172.35107
879.49	886.90028
879.672	1182.92513
879.853	1142.74422
880.034	1172.35107
880.215	916.49708
880.396	1166.00668
880.576	988.38108
880.757	1134.28527
880.938	967.23788
881.119	1286.55522
881.3	973.58077
881.481	1117.36758
881.662	1056.04355
881.843	1220.99249
882.023	994.72417
882.204	1185.03996
882.385	943.98116
882.566	1172.35107
882.747	1091.9916
882.927	1225.22226
883.108	1130.05582
883.289	1142.74422
883.469	973.58077
883.65	1138.51473
883.831	1064.50177
884.011	1240.02656
884.192	1013.75377
884.373	1193.49929
884.553	922.83945
884.734	1242.14147
884.914	1070.8455
885.095	1066.61634
885.275	1005.29611
885.456	1056.04355
885.636	869.98853
885.817	1214.64785
885.997	988.38108
886.178	1138.51473
886.358	1005.29611
886.538	1024.326
886.719	954.55229
886.899	1043.35637
887.08	954.55229
887.26	1191.38445
887.44	986.26673
887.621	1269.63557
887.801	960.89506
887.981	1337.31498
888.161	1028.55493
888.342	1163.89189
888.522	1104.6795
888.702	1172.35107
888.882	1037.01286
889.062	1100.45018
889.242	1132.17054
889.423	1182.92513
889.603	1087.76234
889.783	1136.4
889.963	933.41021
890.143	1089.87697
890.323	1066.61634
890.503	1290.78516
890.683	1047.58541
890.863	1180.81031
891.043	960.89506
891.223	1039.12736
891.403	927.06773
891.583	1132.17054
891.763	984.15239
891.943	1100.45018
892.122	872.10247
892.302	1185.03996
892.482	1011.63935
892.662	1091.9916
892.842	1005.29611
893.022	1075.07468
893.201	867.8746
893.381	1083.5331
893.561	1060.27265
893.741	1155.43277
893.92	1062.38721
894.1	975.69508
894.28	1030.6694
894.459	1032.78388
894.639	1174.46588
894.819	1020.09709
894.998	988.38108
895.178	1072.96009
895.357	986.26673
895.537	1015.86821
895.716	969.35217
895.896	1015.86821
896.075	918.61119
896.255	943.98116
896.434	876.33038
896.614	1043.35637
896.793	834.05287
896.973	927.06773
897.152	800.23344
897.331	872.10247
897.511	709.35615
897.69	865.76068
897.87	732.602
898.049	836.16667
898.228	787.55177
898.407	855.19119
898.587	741.05536
898.766	901.69849
898.945	686.11162
899.124	808.68807
899.304	766.41643
899.483	948.20959
899.662	745.2821
899.841	874.21642
900.02	692.4509
900.199	889.01429
900.378	736.82866
900.557	732.602
900.737	724.14881
900.916	846.73576
901.095	772.75693
901.274	732.602
901.453	572.02299
901.632	707.24295
901.811	500.20897
901.989	650.19098
902.168	637.51393
902.347	700.90343
902.526	574.1354
902.705	626.95005
902.884	557.23644
903.063	688.2247
903.242	631.17557
903.42	791.77895
903.599	500.20897
903.778	599.48543
903.957	474.86679
904.135	664.98142
904.314	531.88963
904.493	690.3378
904.672	610.0485
904.85	654.41676
905.029	588.92269
905.207	588.92269
905.386	580.47273
905.565	572.02299
905.743	523.44114
905.922	514.99288
906.1	466.41988
906.279	546.67503
906.457	362.96564
906.636	441.0806
906.814	476.97856
906.993	377.74241
907.171	470.64331
907.35	523.44114
907.528	504.43287
907.707	405.18717
907.885	398.85351
908.063	470.64331
908.242	388.29776
908.42	343.96815
908.598	384.07557
908.777	388.29776
908.955	352.41131
909.133	495.98513
909.311	388.29776
909.49	407.29842
909.668	373.52039
909.846	413.63227
910.024	259.55236
910.202	489.64947
910.38	379.85345
910.559	453.74996
910.737	447.41521
910.915	464.30819
911.093	419.96626
911.271	445.30366
911.449	360.85473
911.627	346.07892
911.805	354.52214
911.983	479.09034
912.161	394.63116
912.339	470.64331
912.517	388.29776
912.695	529.77749
912.872	354.52214
913.05	445.30366
913.228	403.07593
913.406	455.86158
913.584	460.08485
913.762	491.76134
913.939	335.52528
914.117	360.85473
914.295	295.42551
914.473	377.74241
914.65	352.41131
914.828	390.40887
915.006	310.19835
915.184	441.0806
915.361	274.323
915.539	293.31517
915.716	398.85351
915.894	419.96626
916.072	369.29844
916.249	403.07593
916.427	430.52323
916.604	394.63116
916.782	322.8615
916.959	466.41988
917.137	343.96815
917.314	403.07593
917.492	348.18969
917.669	422.07762
917.847	335.52528
918.024	360.85473
918.201	352.41131
918.379	310.19835
918.556	301.75662
918.733	405.18717
918.911	335.52528
919.088	369.29844
919.265	362.96564
919.442	396.74233
919.62	276.43317
919.797	396.74233
919.974	303.86702
920.151	407.29842
920.328	289.09456
920.506	329.19331
920.683	274.323
920.86	335.52528
921.037	295.42551
921.214	314.41933
921.391	227.90414
921.568	337.63597
921.745	284.87402
921.922	274.323
922.099	286.98428
922.276	291.20486
922.453	301.75662
922.63	286.98428
922.807	261.6624
922.984	204.69824
923.161	365.07655
923.338	284.87402
923.514	208.91732
923.691	322.8615
923.868	139.31302
924.045	289.09456
924.222	320.75093
924.399	225.79441
924.575	166.73021
924.752	200.47924
924.929	219.46535
925.105	280.65356
925.282	255.33235
925.459	314.41933
925.635	149.85767
925.812	200.47924
925.989	244.78265
926.165	185.7134
926.342	141.42191
926.518	192.04149
926.695	208.91732
926.871	223.68471
927.048	185.7134
927.224	267.99262
927.401	116.11668
927.577	208.91732
927.754	196.26033
927.93	177.27622
928.107	181.49477
928.283	200.47924
928.459	236.34324
928.636	164.62107
928.812	208.91732
928.988	267.99262
929.165	149.85767
929.341	160.40285
929.517	145.63975
929.693	213.13647
929.87	118.22533
930.046	200.47924
930.222	120.334
930.398	86.59788
930.574	124.55141
930.751	141.42191
930.927	166.73021
931.103	162.51195
931.279	101.35674
931.455	187.82274
931.631	135.09531
931.807	116.11668
931.983	175.16697
932.159	124.55141
932.335	116.11668
932.511	137.20416
932.687	234.23344
932.863	130.87769
933.039	128.76891
933.215	160.40285
933.391	73.9483
933.566	111.89944
933.742	97.13981
933.918	120.334
934.094	111.89944
934.27	84.48956
934.445	128.76891
934.621	149.85767
934.797	130.87769
934.973	76.05651
935.148	99.24826
935.324	31.78897
935.5	135.09531
935.675	130.87769
935.851	33.89672
936.027	67.62381
936.202	61.29953
936.378	78.16474
936.553	128.76891
936.729	86.59788
936.904	90.81458
937.08	48.65159
937.255	90.81458
937.431	95.03138
937.606	63.4076
937.782	27.57355
937.957	21.25059
938.133	44.4358
938.308	40.22009
938.483	57.08346
938.659	90.81458
938.834	80.27299
939.009	8.60532
939.185	76.05651
939.36	71.84011
939.535	107.68229
939.71	-27.21824
939.886	8.60532
940.061	61.29953
940.236	42.32793
940.411	71.84011
940.586	31.78897
940.761	78.16474
940.937	0.17561
941.112	48.65159
941.287	-44.07393
941.462	0.17561
941.637	86.59788
941.812	2.283
941.987	65.5157
942.162	27.57355
942.337	-8.2537
942.512	40.22009
942.687	54.97546
942.862	2.283
943.037	76.05651
943.212	27.57355
943.386	-10.36097
943.561	25.46587
943.736	-35.64629
943.911	31.78897
944.086	40.22009
944.26	21.25059
944.435	33.89672
944.61	57.08346
944.785	80.27299
944.959	42.32793
945.134	27.57355
945.309	36.00449
945.483	25.46587
945.658	-10.36097
945.833	23.35822
946.007	-12.46822
946.182	23.35822
946.357	61.29953
946.531	14.92785
946.706	78.16474
946.88	44.4358
947.055	-18.7898
947.229	36.00449
947.404	42.32793
947.578	88.70622
947.752	88.70622
947.927	-12.46822
948.101	-10.36097
948.276	27.57355
948.45	36.00449
948.624	-18.7898
948.799	-35.64629
948.973	99.24826
949.147	40.22009
949.321	-27.21824
949.496	40.22009
949.67	21.25059
949.844	19.14299
950.018	-10.36097
950.193	10.7128
950.367	23.35822
950.541	44.4358
950.715	73.9483
950.889	6.49786
951.063	63.4076
951.237	6.49786
951.411	36.00449
951.585	57.08346
951.759	-31.43231
951.933	-41.96706
952.107	73.9483
952.281	65.5157
952.455	80.27299
952.629	76.05651
952.803	120.334
952.977	33.89672
953.151	-8.2537
953.325	78.16474
953.499	71.84011
953.672	14.92785
953.846	54.97546
954.02	82.38126
954.194	44.4358
954.368	52.86748
954.541	12.82031
954.715	-6.14641
954.889	48.65159
955.062	2.283
955.236	29.68125
955.41	65.5157
955.583	23.35822
955.757	59.19149
955.93	111.89944
956.104	52.86748
956.278	0.17561
956.451	63.4076
956.625	0.17561
956.798	73.9483
956.972	17.0354
957.145	36.00449
957.319	84.48956
957.492	12.82031
957.665	38.11228
957.839	8.60532
958.012	78.16474
958.185	65.5157
958.359	42.32793
958.532	14.92785
958.705	67.62381
958.879	-1.93175
959.052	-4.03909
959.225	6.49786
959.398	-6.14641
959.572	23.35822
959.745	69.73195
959.918	0.17561
960.091	31.78897
960.264	-6.14641
960.438	-14.57544
960.611	99.24826
960.784	10.7128
960.957	27.57355
961.13	-33.53931
961.303	-8.2537
961.476	23.35822
961.649	52.86748
961.822	-37.75323
961.995	-10.36097
962.168	23.35822
962.341	-18.7898
962.514	29.68125
962.686	-1.93175
962.859	-25.11117
963.032	40.22009
963.205	67.62381
963.378	25.46587
963.551	78.16474
963.723	-20.89695
963.896	-1.93175
964.069	42.32793
964.242	114.00805
964.414	65.5157
964.587	42.32793
964.76	-50.3944
964.932	-14.57544
965.105	-1.93175
965.278	78.16474
965.45	14.92785
965.623	50.75953
965.795	95.03138
965.968	0.17561
966.14	57.08346
966.313	48.65159
966.485	111.89944
966.658	38.11228
966.83	14.92785
967.003	57.08346
967.175	-10.36097
967.348	40.22009
967.52	40.22009
967.692	50.75953
967.865	-16.68263
968.037	120.334
968.209	27.57355
968.382	-27.21824
968.554	42.32793
968.726	29.68125
968.898	46.54368
969.071	73.9483
969.243	-77.78048
969.415	38.11228
969.587	57.08346
969.759	42.32793
969.932	67.62381
970.104	-1.93175
970.276	-6.14641
970.448	-67.24789
970.62	-10.36097
970.792	48.65159
970.964	33.89672
971.136	80.27299
971.308	14.92785
971.48	69.73195
971.652	-1.93175
971.824	33.89672
971.996	14.92785
972.168	12.82031
972.339	23.35822
972.511	-84.09974
972.683	-31.43231
972.855	48.65159
973.027	23.35822
973.199	23.35822
973.37	-44.07393
973.542	-25.11117
973.714	-1.93175
973.886	86.59788
974.057	92.92297
974.229	14.92785
974.401	-29.32529
974.572	105.57375
974.744	31.78897
974.915	-35.64629
975.087	-4.03909
975.259	2.283
975.43	52.86748
975.602	-35.64629
975.773	52.86748
975.945	46.54368
976.116	-14.57544
976.288	6.49786
976.459	-37.75323
976.63	65.5157
976.802	4.39042
976.973	0.17561
977.145	48.65159
977.316	21.25059
977.487	48.65159
977.659	14.92785
977.83	0.17561
978.001	-60.92802
978.172	27.57355
978.344	-16.68263
978.515	46.54368
978.686	44.4358
978.857	-1.93175
979.028	42.32793
979.2	-33.53931
979.371	61.29953
979.542	92.92297
979.713	-31.43231
979.884	40.22009
980.055	23.35822
980.226	99.24826
980.397	33.89672
980.568	14.92785
980.739	40.22009
980.91	31.78897
981.081	42.32793
981.252	0.17561
981.423	52.86748
981.594	27.57355
981.765	29.68125
981.936	-23.00407
982.106	52.86748
982.277	61.29953
982.448	10.7128
982.619	-25.11117
982.79	95.03138
982.96	-16.68263
983.131	21.25059
983.302	27.57355
983.472	14.92785
983.643	40.22009
983.814	40.22009
983.984	6.49786
984.155	-27.21824
984.326	14.92785
984.496	6.49786
984.667	17.0354
984.837	67.62381
985.008	33.89672
985.178	-8.2537
985.349	19.14299
985.519	48.65159
985.69	-10.36097
985.86	10.7128
986.031	23.35822
986.201	0.17561
986.371	-60.92802
986.542	-41.96706
986.712	21.25059
986.882	33.89672
987.053	-18.7898
987.223	-35.64629
987.393	0.17561
987.563	-41.96706
987.734	48.65159
987.904	17.0354
988.074	69.73195
988.244	86.59788
988.414	67.62381
988.585	-6.14641
988.755	-18.7898
988.925	42.32793
989.095	23.35822
989.265	19.14299
989.435	-8.2537
989.605	-73.56752
989.775	69.73195
989.945	6.49786
990.115	14.92785
990.285	36.00449
990.455	-35.64629
990.625	-31.43231
990.795	57.08346
990.965	-71.461
991.134	33.89672
991.304	12.82031
991.474	-16.68263
991.644	8.60532
991.814	48.65159
991.984	-16.68263
992.153	69.73195
992.323	27.57355
992.493	29.68125
992.662	54.97546
992.832	31.78897
993.002	-25.11117
993.171	57.08346
993.341	38.11228
993.511	23.35822
993.68	-52.50118
993.85	59.19149
994.019	14.92785
994.189	-10.36097
994.358	21.25059
994.528	-10.36097
994.697	-1.93175
994.867	-16.68263
995.036	2.283
995.206	27.57355
995.375	78.16474
995.544	61.29953
995.714	38.11228
995.883	76.05651
996.052	14.92785
996.222	107.68229
996.391	31.78897
996.56	-31.43231
996.73	29.68125
996.899	-60.92802
997.068	-18.7898
997.237	14.92785
997.406	-35.64629
997.576	-27.21824
997.745	23.35822
997.914	-27.21824
998.083	2.283
998.252	33.89672
998.421	12.82031
998.59	10.7128
998.759	52.86748
998.928	82.38126
999.097	57.08346
999.266	19.14299
999.435	27.57355
999.604	4.39042
999.773	-14.57544
999.942	92.92297
1000.111	6.49786
1000.28	6.49786
1000.448	19.14299
1000.617	-10.36097
1000.786	19.14299
1000.955	-41.96706
1001.124	6.49786
1001.292	31.78897
1001.461	76.05651
1001.63	31.78897
1001.798	6.49786
1001.967	-18.7898
1002.136	17.0354
1002.304	46.54368
1002.473	-39.86016
1002.642	-12.46822
1002.81	23.35822
1002.979	27.57355
1003.147	6.49786
1003.316	48.65159
1003.484	19.14299
1003.653	14.92785
1003.821	29.68125
1003.99	0.17561
1004.158	-20.89695
1004.327	14.92785
1004.495	14.92785
1004.663	27.57355
1004.832	-18.7898
1005	29.68125
1005.168	17.0354
1005.337	14.92785
1005.505	6.49786
1005.673	10.7128
1005.842	42.32793
1006.01	38.11228
1006.178	40.22009
1006.346	54.97546
1006.514	-35.64629
1006.683	6.49786
1006.851	-31.43231
1007.019	-10.36097
1007.187	-10.36097
1007.355	29.68125
1007.523	-1.93175
1007.691	33.89672
1007.859	-48.28761
1008.027	-10.36097
1008.195	6.49786
1008.363	-8.2537
1008.531	-14.57544
1008.699	-10.36097
1008.867	-44.07393
1009.035	-8.2537
1009.203	6.49786
1009.37	27.57355
1009.538	63.4076
1009.706	10.7128
1009.874	25.46587
1010.042	42.32793
1010.209	-67.24789
1010.377	-27.21824
1010.545	-18.7898
1010.713	4.39042
1010.88	-67.24789
1011.048	-31.43231
1011.216	57.08346
1011.383	29.68125
1011.551	-10.36097
1011.718	59.19149
1011.886	-52.50118
1012.054	-27.21824
1012.221	-10.36097
1012.389	36.00449
1012.556	23.35822
1012.724	-18.7898
1012.891	-77.78048
1013.058	8.60532
1013.226	-18.7898
1013.393	19.14299
1013.561	-41.96706
1013.728	-6.14641
1013.895	31.78897
1014.063	-67.24789
1014.23	-86.2061
1014.397	-8.2537
1014.565	6.49786
1014.732	42.32793
1014.899	10.7128
1015.066	-52.50118
1015.233	-10.36097
1015.401	-31.43231
1015.568	-14.57544
1015.735	14.92785
1015.902	-8.2537
1016.069	50.75953
1016.236	-25.11117
1016.403	0.17561
1016.57	23.35822
1016.737	-1.93175
1016.904	27.57355
1017.071	-41.96706
1017.238	19.14299
1017.405	8.60532
1017.572	-46.18078
1017.739	-29.32529
1017.906	23.35822
1018.073	36.00449
1018.24	17.0354
1018.407	-27.21824
1018.573	-8.2537
1018.74	46.54368
1018.907	-73.56752
1019.074	33.89672
1019.241	-27.21824
1019.407	-10.36097
1019.574	-60.92802
1019.741	-10.36097
1019.907	-44.07393
1020.074	76.05651
1020.241	10.7128
1020.407	57.08346
1020.574	-94.6313
1020.74	48.65159
1020.907	6.49786
1021.073	-14.57544
1021.24	-67.24789
1021.406	40.22009
1021.573	40.22009
1021.739	-60.92802
1021.906	76.05651
1022.072	-23.00407
1022.239	-8.2537
1022.405	2.283
1022.571	27.57355
1022.738	19.14299
1022.904	50.75953
1023.07	57.08346
1023.237	-60.92802
1023.403	0.17561
1023.569	-8.2537
1023.735	54.97546
1023.902	14.92785
1024.068	33.89672
1024.234	-10.36097
1024.4	50.75953
1024.566	-27.21824
1024.732	0.17561
1024.898	90.81458
1025.065	76.05651
1025.231	97.13981
1025.397	52.86748
1025.563	21.25059
1025.729	31.78897
1025.895	-1.93175
1026.061	25.46587
1026.227	-39.86016
1026.392	29.68125
1026.558	25.46587
1026.724	-44.07393
1026.89	-18.7898
1027.056	40.22009
1027.222	42.32793
1027.388	14.92785
1027.553	31.78897
1027.719	-71.461
1027.885	-60.92802
1028.051	31.78897
1028.216	86.59788
1028.382	40.22009
1028.548	-27.21824
1028.713	-31.43231
1028.879	2.283
1029.045	0.17561
1029.21	-41.96706
1029.376	42.32793
1029.541	8.60532
1029.707	-14.57544
1029.873	-94.6313
1030.038	73.9483
1030.204	-41.96706
1030.369	8.60532
1030.534	19.14299
1030.7	-29.32529
1030.865	-16.68263
1031.031	-1.93175
1031.196	6.49786
1031.361	31.78897
1031.527	23.35822
1031.692	-8.2537
1031.857	-8.2537
1032.023	-18.7898
1032.188	21.25059
1032.353	-35.64629
1032.518	2.283
1032.684	46.54368
1032.849	-14.57544
1033.014	-25.11117
1033.179	-46.18078
1033.344	-48.28761
1033.509	10.7128
1033.674	48.65159
1033.839	33.89672
1034.004	-6.14641
1034.17	27.57355
1034.335	90.81458
1034.5	6.49786
1034.664	2.283
1034.829	54.97546
1034.994	6.49786
1035.159	31.78897
1035.324	-23.00407
1035.489	-65.14129
1035.654	-73.56752
1035.819	-27.21824
1035.984	-16.68263
1036.148	-33.53931
1036.313	14.92785
1036.478	10.7128
1036.643	-27.21824
1036.807	-27.21824
1036.972	-14.57544
1037.137	-44.07393
1037.301	-35.64629
1037.466	-1.93175
1037.631	-41.96706
1037.795	-1.93175
1037.96	-10.36097
1038.124	-54.60793
1038.289	-31.43231
1038.454	-10.36097
1038.618	-44.07393
1038.783	6.49786
1038.947	0.17561
1039.111	10.7128
1039.276	82.38126
1039.44	27.57355
1039.605	-6.14641
1039.769	-35.64629
1039.933	8.60532
1040.098	-54.60793
1040.262	-14.57544
1040.426	31.78897
1040.591	-23.00407
1040.755	50.75953
1040.919	-10.36097
1041.083	38.11228
1041.248	-1.93175
1041.412	-18.7898
1041.576	-56.71465
1041.74	0.17561
1041.904	-25.11117
1042.068	23.35822
1042.232	10.7128
1042.397	-35.64629
1042.561	65.5157
1042.725	-73.56752
1042.889	65.5157
1043.053	4.39042
1043.217	0.17561
1043.381	-58.82135
1043.544	10.7128
1043.708	6.49786
1043.872	19.14299
1044.036	-12.46822
1044.2	61.29953
1044.364	-4.03909
1044.528	6.49786
1044.691	-41.96706
1044.855	33.89672
1045.019	6.49786
1045.183	25.46587
1045.346	6.49786
1045.51	-33.53931
1045.674	-58.82135
1045.837	19.14299
1046.001	-35.64629
1046.165	-10.36097
1046.328	82.38126
1046.492	52.86748
1046.655	-60.92802
1046.819	33.89672
1046.983	-18.7898
1047.146	14.92785
1047.31	52.86748
1047.473	67.62381
1047.636	-27.21824
1047.8	-20.89695
1047.963	14.92785
1048.127	36.00449
1048.29	-44.07393
