Data from absorb_only_2.23.25_USB4F045381__48__0153.txt Node

Date: Sun Feb 23 19:21:31 EST 2025
User: ssocol
Spectrometer: USB4F04538
Trigger mode: 4
Integration Time (sec): 2.600000E-3
Scans to average: 1
Electric dark correction enabled: true
Nonlinearity correction enabled: true
Boxcar width: 0
XAxis mode: Wavelengths
Number of Pixels in Spectrum: 3648
>>>>>Begin Spectral Data<<<<<
345.52	15.98162
345.736	15.98162
345.952	15.98162
346.168	-11.4146
346.384	51.8135
346.6	22.3044
346.816	-24.05762
347.032	51.8135
347.248	-34.5928
347.464	-13.52183
347.68	-66.19459
347.896	-15.62904
348.112	43.38186
348.328	-11.4146
348.544	20.19678
348.76	9.65906
348.975	18.08919
349.191	-2.98542
349.407	37.05838
349.623	-13.52183
349.839	81.32712
350.055	-11.4146
350.27	13.87408
350.486	24.41204
350.702	-38.8067
350.918	-15.62904
351.133	-15.62904
351.349	-34.5928
351.565	-15.62904
351.781	11.76656
351.996	11.76656
352.212	-24.05762
352.428	1.22931
352.644	1.22931
352.859	1.22931
353.075	5.44413
353.291	15.98162
353.506	5.44413
353.722	22.3044
353.938	-30.3788
354.153	3.33671
354.369	-19.84338
354.584	77.11062
354.8	-9.30734
355.016	43.38186
355.231	-11.4146
355.447	-13.52183
355.662	-2.98542
355.878	22.3044
356.093	7.55158
356.309	60.24551
356.524	47.59764
356.74	56.02946
356.955	9.65906
357.171	11.76656
357.386	5.44413
357.602	11.76656
357.817	-21.95051
358.033	15.98162
358.248	-5.09275
358.464	20.19678
358.679	18.08919
358.895	-32.48582
359.11	22.3044
359.325	5.44413
359.541	-26.16471
359.756	51.8135
359.972	-15.62904
360.187	30.7351
360.402	11.76656
360.618	53.92147
360.833	-53.55456
361.048	51.8135
361.264	-47.2342
361.479	13.87408
361.694	34.9506
361.909	47.59764
362.125	-0.87807
362.34	70.78603
362.555	85.54372
362.77	9.65906
362.986	-11.4146
363.201	-7.20006
363.416	-11.4146
363.631	7.55158
363.847	-32.48582
364.062	-13.52183
364.277	43.38186
364.492	56.02946
364.707	1.22931
364.922	30.7351
365.138	-0.87807
365.353	68.67788
365.568	-21.95051
365.783	5.44413
365.998	26.51971
366.213	34.9506
366.428	9.65906
366.643	-7.20006
366.858	3.33671
367.073	-21.95051
367.288	77.11062
367.503	34.9506
367.718	-24.05762
367.933	70.78603
368.148	-49.34101
368.363	22.3044
368.578	-36.69976
368.793	127.71452
369.008	1.22931
369.223	43.38186
369.438	-32.48582
369.653	161.45739
369.868	-38.8067
370.083	104.51949
370.298	-15.62904
370.513	11.76656
370.728	11.76656
370.943	18.08919
371.157	81.32712
371.372	51.8135
371.587	-57.768
371.802	83.43541
372.017	-78.83371
372.232	20.19678
372.446	13.87408
372.661	53.92147
372.876	-24.05762
373.091	51.8135
373.306	-21.95051
373.52	24.41204
373.735	26.51971
373.95	64.46165
374.165	68.67788
374.379	56.02946
374.594	-97.79065
374.809	34.9506
375.023	22.3044
375.238	51.8135
375.453	-57.768
375.667	45.48974
375.882	20.19678
376.097	22.3044
376.311	15.98162
376.526	37.05838
376.741	60.24551
376.955	3.33671
377.17	62.35357
377.384	64.46165
377.599	24.41204
377.813	-30.3788
378.028	5.44413
378.242	51.8135
378.457	45.48974
378.672	83.43541
378.886	34.9506
379.101	41.27401
379.315	43.38186
379.53	20.19678
379.744	1.22931
379.958	68.67788
380.173	79.21886
380.387	28.62739
380.602	-40.91361
380.816	28.62739
381.031	-38.8067
381.245	68.67788
381.459	43.38186
381.674	37.05838
381.888	13.87408
382.103	83.43541
382.317	13.87408
382.531	-28.27177
382.746	1.22931
382.96	-19.84338
383.174	26.51971
383.388	41.27401
383.603	5.44413
383.817	56.02946
384.031	83.43541
384.246	102.41098
384.46	-5.09275
384.674	-32.48582
384.888	11.76656
385.103	-32.48582
385.317	62.35357
385.531	58.13747
385.745	53.92147
385.959	-7.20006
386.174	-0.87807
386.388	20.19678
386.602	26.51971
386.816	37.05838
387.03	-7.20006
387.244	45.48974
387.458	39.16618
387.672	15.98162
387.887	20.19678
388.101	18.08919
388.315	68.67788
388.529	85.54372
388.743	85.54372
388.957	51.8135
389.171	68.67788
389.385	1.22931
389.599	62.35357
389.813	53.92147
390.027	-19.84338
390.241	13.87408
390.455	5.44413
390.669	104.51949
390.883	68.67788
391.097	11.76656
391.311	26.51971
391.525	51.8135
391.738	5.44413
391.952	1.22931
392.166	60.24551
392.38	62.35357
392.594	79.21886
392.808	-21.95051
393.022	1.22931
393.236	-24.05762
393.449	-32.48582
393.663	32.84284
393.877	79.21886
394.091	-15.62904
394.305	22.3044
394.518	161.45739
394.732	-2.98542
394.946	26.51971
395.16	72.8942
395.373	-21.95051
395.587	72.8942
395.801	87.65205
396.015	85.54372
396.228	47.59764
396.442	15.98162
396.656	-66.19459
396.869	-11.4146
397.083	70.78603
397.297	28.62739
397.51	9.65906
397.724	68.67788
397.938	37.05838
398.151	11.76656
398.365	-5.09275
398.578	-7.20006
398.792	22.3044
399.005	30.7351
399.219	51.8135
399.433	3.33671
399.646	60.24551
399.86	91.86877
400.073	1.22931
400.287	-7.20006
400.5	85.54372
400.714	28.62739
400.927	64.46165
401.141	134.0409
401.354	3.33671
401.567	1.22931
401.781	41.27401
401.994	13.87408
402.208	56.02946
402.421	13.87408
402.635	51.8135
402.848	1.22931
403.061	-19.84338
403.275	5.44413
403.488	51.8135
403.701	60.24551
403.915	3.33671
404.128	51.8135
404.341	68.67788
404.555	110.84515
404.768	-32.48582
404.981	-19.84338
405.195	13.87408
405.408	20.19678
405.621	87.65205
405.834	-24.05762
406.048	30.7351
406.261	-7.20006
406.474	-30.3788
406.687	18.08919
406.9	56.02946
407.114	9.65906
407.327	53.92147
407.54	26.51971
407.753	47.59764
407.966	11.76656
408.179	9.65906
408.392	119.27966
408.605	22.3044
408.819	34.9506
409.032	15.98162
409.245	-11.4146
409.458	24.41204
409.671	37.05838
409.884	9.65906
410.097	7.55158
410.31	45.48974
410.523	28.62739
410.736	62.35357
410.949	43.38186
411.162	28.62739
411.375	-61.98135
411.588	30.7351
411.801	34.9506
412.014	26.51971
412.227	-49.34101
412.44	47.59764
412.653	13.87408
412.865	41.27401
413.078	-15.62904
413.291	56.02946
413.504	-49.34101
413.717	68.67788
413.93	22.3044
414.143	13.87408
414.356	93.97717
414.568	-2.98542
414.781	11.76656
414.994	-15.62904
415.207	43.38186
415.42	104.51949
415.632	13.87408
415.845	-0.87807
416.058	7.55158
416.271	9.65906
416.483	1.22931
416.696	26.51971
416.909	-15.62904
417.121	43.38186
417.334	22.3044
417.547	-5.09275
417.759	56.02946
417.972	-11.4146
418.185	-5.09275
418.397	53.92147
418.61	22.3044
418.823	26.51971
419.035	-40.91361
419.248	89.7604
419.46	53.92147
419.673	-7.20006
419.885	68.67788
420.098	45.48974
420.311	-15.62904
420.523	100.3025
420.736	43.38186
420.948	93.97717
421.161	75.0024
421.373	60.24551
421.586	34.9506
421.798	18.08919
422.01	11.76656
422.223	18.08919
422.435	9.65906
422.648	26.51971
422.86	9.65906
423.073	108.73657
423.285	93.97717
423.497	47.59764
423.71	1.22931
423.922	45.48974
424.134	68.67788
424.347	43.38186
424.559	9.65906
424.771	45.48974
424.984	11.76656
425.196	15.98162
425.408	-11.4146
425.621	37.05838
425.833	56.02946
426.045	85.54372
426.257	81.32712
426.47	62.35357
426.682	110.84515
426.894	68.67788
427.106	-5.09275
427.318	87.65205
427.531	30.7351
427.743	93.97717
427.955	5.44413
428.167	64.46165
428.379	108.73657
428.591	-15.62904
428.804	56.02946
429.016	37.05838
429.228	26.51971
429.44	45.48974
429.652	62.35357
429.864	83.43541
430.076	37.05838
430.288	9.65906
430.5	9.65906
430.712	87.65205
430.924	98.19403
431.136	72.8942
431.348	-7.20006
431.56	77.11062
431.772	110.84515
431.984	117.171
432.196	64.46165
432.408	58.13747
432.62	26.51971
432.832	39.16618
433.044	-30.3788
433.256	93.97717
433.468	121.38835
433.679	9.65906
433.891	28.62739
434.103	18.08919
434.315	64.46165
434.527	45.48974
434.739	110.84515
434.95	28.62739
435.162	9.65906
435.374	60.24551
435.586	-11.4146
435.798	5.44413
436.009	60.24551
436.221	43.38186
436.433	89.7604
436.645	15.98162
436.856	60.24551
437.068	-32.48582
437.28	119.27966
437.491	64.46165
437.703	68.67788
437.915	96.08559
438.126	30.7351
438.338	110.84515
438.55	-5.09275
438.761	15.98162
438.973	75.0024
439.184	125.60578
439.396	75.0024
439.608	13.87408
439.819	72.8942
440.031	-15.62904
440.242	77.11062
440.454	125.60578
440.665	110.84515
440.877	68.67788
441.088	39.16618
441.3	22.3044
441.511	41.27401
441.723	77.11062
441.934	98.19403
442.146	102.41098
442.357	98.19403
442.569	-19.84338
442.78	98.19403
442.991	93.97717
443.203	64.46165
443.414	93.97717
443.626	115.06236
443.837	30.7351
444.048	68.67788
444.26	9.65906
444.471	83.43541
444.682	64.46165
444.894	131.93208
445.105	53.92147
445.316	56.02946
445.528	121.38835
445.739	104.51949
445.95	70.78603
446.161	26.51971
446.373	81.32712
446.584	64.46165
446.795	68.67788
447.006	39.16618
447.217	34.9506
447.429	24.41204
447.64	18.08919
447.851	172.00315
448.062	108.73657
448.273	93.97717
448.484	93.97717
448.695	79.21886
448.907	104.51949
449.118	89.7604
449.329	121.38835
449.54	123.49705
449.751	102.41098
449.962	98.19403
450.173	106.62802
450.384	119.27966
450.595	37.05838
450.806	136.14973
451.017	77.11062
451.228	102.41098
451.439	85.54372
451.65	83.43541
451.861	98.19403
452.072	115.06236
452.283	96.08559
452.494	157.23924
452.705	77.11062
452.915	87.65205
453.126	102.41098
453.337	79.21886
453.548	98.19403
453.759	131.93208
453.97	81.32712
454.181	91.86877
454.391	138.25859
454.602	85.54372
454.813	153.02117
455.024	85.54372
455.235	136.14973
455.445	129.82329
455.656	131.93208
455.867	117.171
456.078	127.71452
456.288	68.67788
456.499	91.86877
456.71	85.54372
456.921	163.5665
457.131	102.41098
457.342	172.00315
457.553	62.35357
457.763	144.58528
457.974	138.25859
458.184	104.51949
458.395	127.71452
458.606	186.76807
458.816	169.89395
459.027	203.64348
459.237	150.91217
459.448	214.19127
459.659	157.23924
459.869	195.20561
460.08	119.27966
460.29	199.42451
460.501	205.753
460.711	167.78478
460.922	256.38735
461.132	193.0962
461.343	235.28834
461.553	169.89395
461.764	153.02117
461.974	144.58528
462.184	203.64348
462.395	180.44012
462.605	231.06877
462.816	224.73956
463.026	237.39815
463.236	193.0962
463.447	203.64348
463.657	161.45739
463.867	218.41053
464.078	247.94751
464.288	296.48068
464.498	224.73956
464.709	182.54942
464.919	182.54942
465.129	212.08167
465.339	313.36408
465.55	317.58511
465.76	220.52019
465.97	212.08167
466.18	296.48068
466.391	315.47458
466.601	323.91679
466.811	349.24509
467.021	264.82749
467.231	355.57756
467.441	317.58511
467.651	315.47458
467.862	326.02738
468.072	292.26001
468.282	435.80187
468.492	433.6904
468.702	393.57558
468.912	509.71283
469.122	385.13111
469.332	355.57756
469.542	507.60084
469.752	431.57895
469.962	490.7054
470.172	473.81092
470.382	475.92268
470.592	575.19162
470.802	431.57895
471.012	604.76693
471.222	549.84342
471.432	511.82484
471.642	566.742
471.852	625.89368
472.062	649.13455
472.272	731.54534
472.482	623.78095
472.691	668.15088
472.901	720.97891
473.111	735.77199
473.321	739.99868
473.531	744.22541
473.741	769.58667
473.95	778.04075
474.16	788.60856
474.37	883.72929
474.58	881.6153
474.79	1057.10082
474.999	898.52741
475.209	947.15248
475.419	1040.18461
475.628	1148.0311
475.838	989.43826
476.048	1131.11318
476.258	1143.80159
476.467	1268.5781
476.677	1139.5721
476.886	1363.75273
477.096	1329.91245
477.306	1427.20397
477.515	1471.62006
477.725	1454.69964
477.935	1456.8147
478.144	1518.15108
478.354	1353.17761
478.563	1640.82106
478.773	1551.99158
478.982	1896.70467
479.192	1666.20023
479.401	1746.56484
479.611	1970.70787
479.82	1886.13222
480.03	1888.24672
480.239	1854.41412
480.449	1818.46561
480.658	2072.18552
480.868	2012.99209
481.077	2004.53545
481.287	2101.78014
481.496	2327.91462
481.705	2315.2369
481.915	2334.25335
482.124	2106.00783
482.333	2351.15619
482.543	2334.25335
482.752	2361.72014
482.961	2463.12093
483.171	2469.45767
483.38	2372.28384
483.589	2541.26691
483.799	2646.8441
484.008	2841.0228
484.217	2832.58263
484.426	2895.87841
484.636	2777.7161
484.845	2803.04027
485.054	2857.90247
485.263	2891.65909
485.472	2849.46275
485.682	3077.25292
485.891	2997.12446
486.1	3043.51734
486.309	3229.01249
486.518	3138.38837
486.727	3231.11967
486.936	3460.69911
487.146	3212.15449
487.355	3492.27622
487.564	3414.3787
487.773	3355.41306
487.982	3435.4345
488.191	3656.41047
488.4	3513.32535
488.609	3652.20332
488.818	3620.6473
489.027	3725.81739
489.236	3755.25641
489.445	3830.93918
489.654	3925.50654
489.863	4152.30005
490.072	3795.20327
490.281	3950.71763
490.49	4045.2331
490.698	4020.03303
490.907	4047.33297
491.116	4158.59641
491.325	4055.73225
491.534	4129.21177
491.743	4192.17381
491.952	4253.019
492.16	4263.50774
492.369	4466.88249
492.578	4422.87026
492.787	4575.8233
492.996	4441.73383
493.204	4674.23728
493.413	4607.23738
493.622	4701.44942
493.831	4626.08342
494.039	4816.53544
494.248	4619.80161
494.457	4916.91791
494.665	4981.72018
494.874	4887.64513
495.083	4787.24733
495.291	4946.18619
495.5	4833.26951
495.709	4942.00528
495.917	5109.16961
496.126	5178.08169
496.335	4835.36116
496.543	5033.96396
496.752	5079.92653
496.96	5125.87789
497.169	5317.91601
497.377	5334.60563
497.586	5267.83816
497.794	5438.88173
498.003	5221.92164
498.211	5397.17833
498.42	5380.49434
498.628	5461.81459
498.837	5413.86082
499.045	5545.18281
499.254	5488.91339
499.462	5647.2575
499.671	5768.00741
499.879	5743.03118
500.087	5609.76725
500.296	5815.86901
500.504	5772.16978
500.713	5786.73735
500.921	6050.83386
501.129	5886.59807
501.338	5670.16445
501.546	6079.9236
501.754	5734.70502
501.962	6140.16626
502.171	6009.26908
502.379	6185.8544
502.587	6050.83386
502.795	6237.75896
503.004	6075.76821
503.212	6306.25055
503.42	6059.14569
503.628	6266.81911
503.837	6171.3185
504.045	6455.59848
504.253	6150.55092
504.461	6345.67356
504.669	6577.89097
504.877	6646.25675
505.085	6515.71843
505.294	6524.00931
505.502	6602.75416
505.71	6633.82848
505.918	6486.69745
506.126	6650.39932
506.334	6362.27019
506.542	6861.54897
506.75	6606.8977
506.958	6793.26188
507.166	6741.51268
507.374	6652.47057
507.582	6780.84337
507.79	6898.78604
507.998	6623.47095
508.206	7037.3263
508.414	6900.85455
508.622	6964.96715
508.83	6867.75566
509.037	7119.98881
509.245	6828.44317
509.453	6991.84662
509.661	6998.04904
509.869	7148.91225
510.077	6975.30586
510.285	7328.55345
510.492	7153.04381
510.7	7206.74606
510.908	7031.12516
511.116	7243.91576
511.324	7239.78615
511.531	7204.68086
511.739	7285.20705
511.947	7235.65645
512.155	7062.12881
512.362	7210.87638
512.57	7285.20705
512.778	7361.57278
512.985	7561.63349
513.193	7479.15887
513.401	7444.09671
513.608	7557.51058
513.816	7371.89018
514.024	7613.16272
514.231	7293.46426
514.439	7611.1018
514.646	7648.19498
514.854	7644.07386
515.061	7406.96525
515.269	7755.31454
515.477	7726.48026
515.684	7821.20604
515.892	7543.0797
516.099	7835.61697
516.307	8002.2983
516.514	7903.54048
516.722	7736.77869
516.929	7957.04016
517.136	7878.84363
517.344	8029.03712
517.551	7952.92529
517.759	8207.89377
517.966	8088.6729
518.173	8070.16706
518.381	8074.27961
518.588	8327.04796
518.796	8066.05443
519.003	8306.50885
519.21	8084.56063
519.418	8285.96778
519.625	8022.86693
519.832	8398.91953
520.039	8222.27797
520.247	8429.71438
520.454	8368.12034
520.661	8435.87284
520.868	8378.38722
521.076	8499.50007
521.283	8423.55576
521.49	8741.5283
521.697	8308.56284
521.904	8690.27277
522.112	8435.87284
522.319	8431.76722
522.526	8632.85285
522.733	8831.71029
522.94	8684.12133
523.147	8616.44449
523.354	8667.71668
523.561	8895.22658
523.768	8667.71668
523.975	9212.55417
524.183	8636.95476
524.39	9122.51636
524.597	9118.42294
524.804	9294.37832
525.011	9038.58757
525.218	8942.34046
525.425	8866.54394
525.632	9177.77074
525.838	9147.0754
526.045	9163.44672
526.252	9100.00173
526.459	9169.58569
526.666	9147.0754
526.873	9222.78366
527.08	9443.63907
527.287	9390.48772
527.494	9290.28775
527.701	9394.57668
527.907	9333.23545
528.114	9398.66557
528.321	9284.15177
528.528	9625.4982
528.735	9384.35416
528.941	9551.95234
529.148	9486.56103
529.355	9670.43293
529.562	9511.08468
529.768	9715.36018
529.975	9543.77931
530.182	9805.19255
530.388	9658.17875
530.595	9615.28471
530.802	9684.72877
531.008	9946.00774
531.215	9760.28003
531.422	10027.60786
531.628	9866.4252
531.835	9803.15123
532.042	9894.99586
532.248	9907.23954
532.455	9978.65056
532.661	10164.23709
532.868	10025.56814
533.074	10152.0042
533.281	9927.64451
533.487	10090.83222
533.694	10416.94072
533.9	10315.06888
534.107	9964.36978
534.313	10396.56898
534.52	10154.04305
534.726	10262.0824
534.933	10180.54683
535.139	10156.08188
535.345	10064.32044
535.552	10457.6803
535.758	10310.99332
535.965	10418.97783
536.171	10376.19594
536.377	10579.86835
536.584	10437.31116
536.79	10732.54041
536.996	10473.97469
537.203	10710.15279
537.409	10416.94072
537.615	10771.20652
537.821	10533.03499
538.028	10899.38485
538.234	10689.79914
538.44	10622.62348
538.646	10999.04764
538.853	11171.86926
539.059	10844.45693
539.265	11007.18219
539.471	10874.97348
539.677	10820.04182
539.883	10877.00782
540.09	10946.16871
540.296	10952.27052
540.502	11133.2453
540.708	11116.98143
540.914	11364.9328
541.12	10946.16871
541.326	11240.97633
541.532	11269.4287
541.738	11387.28163
541.944	11291.78273
542.15	11641.16387
542.356	11442.13281
542.562	11501.03917
542.768	11312.1035
542.974	11431.97572
543.18	11622.88923
543.386	11464.47755
543.592	11754.85647
543.798	11657.40739
544.004	11600.55255
544.21	11602.5832
544.415	11618.8281
544.621	11801.54368
544.827	11519.31883
545.033	11935.49081
545.239	11787.33502
545.445	11976.07376
545.651	11665.52893
545.856	11953.75354
546.062	11590.39915
546.268	11933.46158
546.474	11937.52003
546.679	11393.37656
546.885	11726.43593
547.091	11994.33505
547.297	11673.65032
547.502	11986.219
547.708	11647.25526
547.914	11931.43234
548.119	12004.47992
548.325	11965.92833
548.531	11507.13248
548.736	12156.62972
548.942	11909.11015
549.147	11903.0221
549.353	12091.71776
549.559	12345.23742
549.764	11874.61026
549.97	11959.84097
550.175	12040.99984
550.381	12442.55967
550.586	12213.42141
550.792	12472.96971
550.997	12426.34037
551.203	12452.69651
551.408	12168.79986
551.614	12434.45007
551.819	12554.05604
552.025	12564.19111
552.23	12602.70298
552.435	12562.16411
552.641	12669.58676
552.846	12483.10607
553.052	12785.09812
553.257	12481.07881
553.462	12298.59825
553.668	12612.83731
553.873	12754.70221
554.078	12537.83959
554.283	12659.45327
554.489	12811.44021
554.694	12979.60277
554.899	13009.98976
555.105	12732.41106
555.31	12898.56515
555.515	13005.93823
555.72	13007.964
555.925	12681.74674
556.131	12908.69531
556.336	13020.11851
556.541	13032.27284
556.746	12882.35661
556.951	13327.97627
557.156	12959.34414
557.361	13131.52667
557.567	13062.6579
557.772	13350.2515
557.977	12882.35661
558.182	12926.92926
558.387	13234.81977
558.592	13453.52125
558.797	13062.6579
559.002	13222.66824
559.207	13127.47571
559.412	13319.87606
559.617	13327.97627
559.822	13315.82593
560.027	13174.06055
560.232	13342.15148
560.437	13338.10144
560.642	13494.01643
560.847	13350.2515
561.051	13528.43617
561.256	13202.41535
561.461	13686.34899
561.666	13771.37068
561.871	13617.51776
562.076	13532.48549
562.281	13568.92865
562.485	13374.5512
562.69	13773.39494
562.895	13585.12524
563.1	13971.75855
563.305	13518.31283
563.509	13702.54403
563.714	13706.59276
563.919	13777.44345
564.123	13793.63738
564.328	13510.21409
564.533	13732.90917
564.737	13518.31283
564.942	13655.98274
565.147	13789.58891
565.351	13680.2758
565.556	13548.68259
565.761	13718.73886
565.965	13850.31462
566.17	13736.9578
566.374	13870.55596
566.579	13935.32638
566.784	14018.30958
566.988	14105.33638
567.193	14109.38403
567.397	13959.61458
567.602	14289.49629
567.806	13629.66473
568.011	14020.33351
568.215	14064.85933
568.42	14208.54891
568.624	13981.87845
568.828	13947.47053
569.033	14028.4292
569.237	14392.70005
569.442	14119.50313
569.646	13937.35041
569.85	14433.17097
570.055	14190.33533
570.259	14066.8832
570.463	14253.07034
570.668	14287.47264
570.872	14259.14138
571.076	14516.13454
571.281	14441.26508
571.485	14198.43028
571.689	14423.0533
571.893	14463.52377
572.098	14635.51738
572.302	14416.98268
572.506	14461.50026
572.71	14095.2172
572.914	14700.26581
573.119	14348.18132
573.323	14400.79429
573.527	14368.4172
573.731	14518.15801
573.935	14880.34291
574.139	14425.07684
574.343	14348.18132
574.547	14837.8533
574.751	14368.4172
574.955	14700.26581
575.159	14651.70458
575.364	14718.47614
575.568	14530.29883
575.772	14586.95536
575.976	14143.78875
576.18	14230.80975
576.383	14730.61631
576.587	15473.16513
576.791	15015.90354
576.995	15133.25348
577.199	15013.88026
577.403	14918.78567
577.607	15070.53203
577.811	15013.88026
578.015	14878.3196
578.219	14847.9699
578.422	14943.06523
578.626	15019.95011
578.83	14912.71577
579.034	15108.97422
579.238	15003.76385
579.442	15214.18431
579.645	15052.32256
579.849	15044.22945
580.053	15287.02218
580.257	14975.43787
580.46	15104.92768
580.664	15005.78714
580.868	14894.50605
581.071	15384.13982
581.275	14985.5543
581.479	15353.79048
581.682	15287.02218
581.886	15299.16185
582.09	15572.30822
582.293	15570.28488
582.497	15378.06995
582.7	15618.84535
582.904	15412.46596
583.107	15378.06995
583.311	15487.32833
583.515	15543.98146
583.718	15181.81197
583.922	15461.02526
584.125	15414.48926
584.329	15734.17842
584.532	15639.07902
584.735	15685.61677
584.939	15685.61677
585.142	15487.32833
585.346	15361.88363
585.549	15889.98445
585.753	15689.66355
585.956	15697.75713
586.159	15509.58486
586.363	15997.23174
586.566	15827.25654
586.769	15628.96217
586.973	15851.53818
587.176	15720.01455
587.379	15889.98445
587.582	15892.00795
587.786	15689.66355
587.989	15983.06679
588.192	16098.41203
588.395	16452.5759
588.599	16134.83786
588.802	16256.26115
589.005	15823.20962
589.208	15825.23308
589.411	15766.55316
589.615	15912.24302
589.818	15958.78417
590.021	16051.86864
590.224	16333.16583
590.427	16183.40645
590.63	16240.07102
590.833	16377.69082
591.036	16306.85604
591.239	16565.92082
591.442	16310.90368
591.645	16161.14573
591.848	16460.67175
592.051	16325.07048
592.254	16189.47759
592.457	16395.90586
592.66	16321.02281
592.863	16371.61918
593.066	16442.45614
593.269	16418.16891
593.472	16260.3087
593.675	16527.46377
593.878	16464.71969
594.081	16901.94944
594.284	16284.59415
594.486	16711.66013
594.689	16355.42821
594.892	16543.65612
595.095	16857.41167
595.298	16827.04571
595.5	16713.68437
595.703	16946.48846
595.906	16798.70466
596.109	16976.8567
596.311	16780.48567
596.514	16861.46051
596.717	16442.45614
596.92	16798.70466
597.122	16916.12081
597.325	16946.48846
597.528	17072.01442
597.73	17043.66894
597.933	17076.06382
598.136	17365.62551
598.338	17252.22361
598.541	17061.89098
598.743	17365.62551
598.946	17408.15367
599.148	17007.22553
599.351	16903.97391
599.554	17213.75008
599.756	17312.97346
599.959	16893.85157
600.161	16865.50936
600.363	16986.97958
600.566	17063.91566
600.768	17193.50127
600.971	16928.2678
601.173	17082.13794
601.376	17622.84076
601.578	17029.4964
601.78	17456.75895
601.983	17108.45941
602.185	17197.55101
602.388	17310.94842
602.59	17523.59417
602.792	17250.19866
602.995	17025.44713
603.197	17256.27351
603.399	17177.30243
603.601	17424.35523
603.804	17416.25443
604.006	17298.79825
604.208	17566.12747
604.41	17675.50539
604.613	17363.60039
604.815	17213.75008
605.017	17673.47979
605.219	17128.70702
605.421	17477.01169
605.623	17679.55661
605.826	17663.35182
606.028	17610.6877
606.23	17501.31538
606.432	17242.09889
606.634	17620.81524
606.836	17406.12849
607.038	17726.14657
607.24	17643.09612
607.442	17458.78421
607.644	17462.83474
607.846	17592.45832
608.048	17349.42466
608.25	17829.46112
608.452	17396.00263
608.654	17519.54345
608.856	16865.50936
609.058	17541.82255
609.26	17165.15343
609.462	17379.80142
609.664	17363.60039
609.866	17317.02354
610.067	17474.9864
610.269	17400.05297
610.471	17144.90531
610.673	17509.41671
610.875	17608.6622
611.077	17898.34243
611.278	17517.5181
611.48	17790.97035
611.682	17703.8642
611.884	17981.41054
612.085	17547.89874
612.287	17809.20267
612.489	17448.65795
612.69	17718.04384
612.892	17884.16065
613.094	17900.36841
613.295	17385.87685
613.497	17833.51285
613.699	17685.63346
613.9	17628.91733
614.102	17335.24908
614.304	17454.7337
614.505	17268.42331
614.707	17705.88985
614.908	17432.45609
615.11	17501.31538
615.311	17711.96683
615.513	17586.38192
615.714	17639.04502
615.916	17598.53475
616.117	17817.306
616.319	17477.01169
616.52	17460.80948
616.722	17671.45419
616.923	17707.91551
617.124	17908.47237
617.326	17292.72321
617.527	17643.09612
617.729	17809.20267
617.93	17914.55037
618.131	17760.58378
618.333	17867.95312
618.534	17797.04776
618.735	17553.97495
618.937	17703.8642
619.138	17805.15102
619.339	17709.94117
619.54	17890.23853
619.742	17701.83855
619.943	17477.01169
620.144	17389.92715
620.345	17491.18879
620.546	17649.1728
620.748	17967.22776
620.949	17541.82255
621.15	17784.89298
621.351	17736.27506
621.552	18086.77379
621.753	18096.90538
621.954	17985.46279
622.155	17707.91551
622.356	18135.40627
622.558	17948.99301
622.759	17790.97035
622.96	17468.91056
623.161	17845.66812
623.362	17782.86719
623.563	17948.99301
623.764	17811.2285
623.965	17894.29047
624.166	17744.37791
624.366	17892.2645
624.567	17784.89298
624.768	18086.77379
624.969	17560.0512
625.17	17827.43526
625.371	17904.42038
625.572	17825.4094
625.773	17624.86628
625.973	18046.24832
626.174	17659.30065
626.375	17756.53229
626.576	18013.82897
626.777	18171.882
626.977	17778.81563
627.178	18111.08977
627.379	18175.93493
627.58	18171.882
627.78	18329.9573
627.981	18042.19585
628.182	17928.73251
628.382	18005.72428
628.583	17758.55803
628.784	18015.85516
628.984	17942.91483
629.185	18171.882
629.386	18032.06474
629.586	18352.25179
629.787	17987.48893
629.987	17946.96695
630.188	18084.74748
630.388	18157.69685
630.589	17724.12089
630.79	17770.71255
630.99	17981.41054
631.191	18323.87706
631.391	18038.1434
631.591	18064.4846
631.792	18070.56343
631.992	18275.23637
632.193	18277.26302
632.393	18155.67041
632.594	18165.80263
632.794	18354.27859
632.994	18115.14248
633.195	18117.16884
633.395	18492.10953
633.595	18325.9038
633.796	18111.08977
633.996	18054.3533
634.196	18080.69488
634.397	18498.19071
634.597	18157.69685
634.797	18291.44969
634.997	18129.32709
635.198	18208.35891
635.398	18074.616
635.598	18364.41262
635.798	18080.69488
635.998	17762.60952
636.199	17865.92719
636.399	18244.83702
636.599	18030.03853
636.799	18372.51991
636.999	17940.88877
637.199	17922.65443
637.399	18005.72428
637.599	18062.45834
637.799	18009.77662
637.999	18336.03757
638.199	18498.19071
638.399	18092.85274
638.599	17995.59349
638.799	18311.71668
638.999	18242.81043
639.199	18348.19821
639.399	18619.82168
639.599	18790.12863
639.799	18488.05543
639.999	18222.5447
640.199	18182.01435
640.399	18366.43943
640.599	17740.32648
640.799	18512.38028
640.998	18153.64398
641.198	18585.35815
641.398	18524.54291
641.598	18757.68707
641.798	18427.24572
641.997	18638.06752
642.197	18556.97727
642.397	18747.54929
642.597	18362.3858
642.796	18502.24486
642.996	18151.61756
643.196	18473.86619
643.395	18364.41262
643.595	18658.34106
643.795	18461.70413
643.994	18779.99054
644.194	18415.08419
644.394	18636.04019
644.593	18471.83917
644.793	18621.84898
644.992	17967.22776
645.192	18344.14465
645.392	18141.48547
645.591	18654.28632
645.791	18765.79736
645.99	18688.7521
646.19	18571.16762
646.389	18619.82168
646.589	18522.51579
646.788	18445.48827
646.987	18119.19521
647.187	18267.12979
647.386	18344.14465
647.586	18492.10953
647.785	18589.41263
647.984	18457.65014
648.184	18658.34106
648.383	18855.01481
648.582	18520.48868
648.782	18832.70973
648.981	19080.12059
649.18	18836.76516
649.38	18946.26793
649.579	18984.79946
649.778	18773.90772
649.977	19244.41853
650.177	18771.88013
650.376	18834.73744
650.575	18587.38539
650.774	18984.79946
650.973	18516.43447
651.173	18512.38028
651.372	18484.00134
651.571	18970.60347
651.77	18857.04257
651.969	19100.40284
652.168	18826.62661
652.367	18824.59891
652.566	18928.01666
652.765	18948.29587
652.964	18591.43987
653.163	18838.79289
653.362	18824.59891
653.561	18804.32214
653.76	18627.9309
653.959	18127.30071
654.158	18451.56919
654.357	18765.79736
654.556	18364.41262
654.755	19082.14879
654.954	18380.62726
655.153	18548.86859
655.352	18605.63068
655.551	18936.12829
655.749	19053.75428
655.948	18769.85254
656.147	18907.73784
656.346	19017.2482
656.545	18506.29901
656.743	18777.96293
656.942	19102.43108
657.141	19138.94023
657.34	19076.06419
657.538	18881.37599
657.737	18883.4038
657.936	19386.42613
658.135	18903.68213
658.333	18603.60341
658.532	18988.8555
658.731	19116.62893
658.929	19045.6417
659.128	19053.75428
659.326	18644.14954
659.525	18893.54292
659.724	18676.58758
659.922	18903.68213
660.121	18660.36844
660.319	18992.91155
660.518	18911.79357
660.716	18932.07247
660.915	18994.93958
661.113	18877.32038
661.312	18903.68213
661.51	19213.99096
661.709	18810.40513
661.907	19145.02521
662.105	19140.96855
662.304	19313.39112
662.502	18932.07247
662.701	19084.17701
662.899	18871.237
663.097	19443.23484
663.296	19096.34635
663.494	19114.60065
663.692	18907.73784
663.891	19163.28039
664.089	18891.51509
664.287	19177.47909
664.485	18640.09486
664.684	19337.73553
664.882	18611.71251
665.08	19130.82697
665.278	18571.16762
665.476	19045.6417
665.675	18739.43913
665.873	18990.88352
666.071	18966.5475
666.269	18940.18413
666.467	19005.07981
666.665	19250.50416
666.863	18759.71464
667.061	18846.90382
667.259	18721.19152
667.457	18863.12587
667.655	18360.35899
667.853	18686.72467
668.051	18317.79685
668.249	18277.26302
668.447	18461.70413
668.645	18702.94422
668.843	18863.12587
669.041	19041.58544
669.239	18530.62428
669.437	18972.63145
669.635	19011.16399
669.833	18895.57075
670.031	18790.12863
670.229	18611.71251
670.426	18790.12863
670.624	18753.63194
670.822	18644.14954
671.02	18554.9501
671.218	18421.16494
671.415	18508.3261
671.613	18117.16884
671.811	18297.52975
672.009	18469.81215
672.206	18836.76516
672.404	18465.75813
672.602	18658.34106
672.799	18844.87608
672.997	19307.30512
673.195	18792.15626
673.392	18978.71544
673.59	18704.97168
673.788	18696.86186
673.985	18561.03164
674.183	18692.80697
674.38	18662.39582
674.578	18960.46359
674.775	18952.35176
674.973	18828.65431
675.17	18832.70973
675.368	18753.63194
675.565	18640.09486
675.763	18419.13802
675.96	18828.65431
676.158	18538.73282
676.355	18415.08419
676.553	18751.60439
676.75	18204.30586
676.947	18443.4613
677.145	18175.93493
677.342	18573.19483
677.539	18526.57003
677.737	18786.07338
677.934	18782.01815
678.131	18709.02662
678.329	18311.71668
678.526	18157.69685
678.723	18498.19071
678.92	18518.46157
679.118	17859.84944
679.315	17837.56459
679.512	17948.99301
679.709	18042.19585
679.906	17760.58378
680.104	18386.70782
680.301	18056.37955
680.498	17979.38442
680.695	17849.71991
680.892	18295.50306
681.089	18017.88134
681.286	18291.44969
681.483	18023.95992
681.68	18100.95805
681.877	17855.79762
682.075	18200.25283
682.272	17902.39439
682.469	18131.35348
682.665	18044.22208
682.862	18115.14248
683.059	18062.45834
683.256	18244.83702
683.453	18054.3533
683.65	18145.53829
683.847	18171.882
684.044	17701.83855
684.241	18048.27456
684.438	17835.53872
684.635	17993.56735
684.831	18315.77013
685.028	18202.27934
685.225	18019.90753
685.422	17928.73251
685.619	17973.30607
685.815	17985.46279
686.012	18133.37987
686.209	17934.81063
686.405	18218.4916
686.602	18042.19585
686.799	17849.71991
686.996	17795.02195
687.192	17801.09938
687.389	17606.6367
687.586	17754.50655
687.782	17460.80948
687.979	17606.6367
688.175	17396.00263
688.372	18019.90753
688.568	17863.90127
688.765	17643.09612
688.962	17910.49837
689.158	17616.76421
689.355	17491.18879
689.551	17440.557
689.748	17327.14881
689.944	17495.23941
690.14	17444.60747
690.337	17499.29006
690.533	17470.93583
690.73	17616.76421
690.926	17985.46279
691.123	17513.4674
691.319	17485.11287
691.515	17817.306
691.712	17132.75658
691.908	17258.29847
692.104	17365.62551
692.301	17596.50927
692.497	17298.79825
692.693	17418.27963
692.889	17551.94955
693.086	17416.25443
693.282	17525.61953
693.478	17732.22366
693.674	17728.17227
693.87	17576.25466
694.067	17645.12168
694.263	17448.65795
694.459	17063.91566
694.655	17086.18737
694.851	17035.57033
695.047	17155.02933
695.243	17377.77628
695.439	17327.14881
695.635	17272.47326
695.831	17406.12849
696.027	17481.06227
696.224	17357.52506
696.42	17122.63271
696.615	17179.32728
696.811	16938.39036
697.007	17153.00452
697.203	17021.39787
697.399	16879.6804
697.595	16681.2968
697.791	16867.53378
697.987	16659.03068
698.183	17393.97747
698.379	16901.94944
698.575	16995.07793
698.77	16703.56319
698.966	16920.16979
699.162	16968.75844
699.358	16995.07793
699.554	16855.38726
699.749	16901.94944
699.945	16733.92691
700.141	17015.32399
700.337	16780.48567
700.532	16948.51299
700.728	17094.28625
700.924	17076.06382
701.119	16829.07009
701.315	16665.10323
701.511	16792.63164
701.706	16851.33843
701.902	16620.57169
702.097	16768.33978
702.293	17148.95491
702.489	17031.52104
702.684	16620.57169
702.88	16456.62382
703.075	16693.44207
703.271	16442.45614
703.466	16865.50936
703.662	16839.19203
703.857	16691.41785
704.053	17033.54568
704.248	16689.39363
704.443	16796.68032
704.639	16557.82454
704.834	16885.75374
705.03	16533.53588
705.225	16551.75234
705.42	16367.57143
705.616	16829.07009
705.811	16491.03147
706.006	16764.29117
706.202	16513.29557
706.397	16331.14199
706.592	16480.91151
706.787	16602.35455
706.983	16424.24069
707.178	16901.94944
707.373	16693.44207
707.568	16594.25811
707.763	16339.23737
707.959	16497.10348
708.154	16033.65622
708.349	16377.69082
708.544	16586.1617
708.739	16553.77641
708.934	16045.79782
709.129	16229.95225
709.324	16140.90888
709.519	16387.81027
709.714	16300.78459
709.909	16395.90586
710.104	16215.78604
710.299	16258.28492
710.494	16179.35903
710.689	16302.8084
710.884	16082.22293
711.079	15981.04323
711.274	15568.26153
711.469	16003.30245
711.664	16179.35903
711.859	16223.88101
712.054	15970.92545
712.249	15910.21951
712.443	15543.98146
712.638	15873.79649
712.833	15839.39734
713.028	16229.95225
713.223	15711.92093
713.417	16041.75061
713.612	15653.24263
713.807	16068.05755
714.002	15766.55316
714.196	16124.71952
714.391	15786.78752
714.586	16165.19312
714.78	16035.67982
714.975	16009.37318
715.17	15754.4126
715.364	16017.4675
715.559	16227.9285
715.754	15720.01455
715.948	15572.30822
716.143	15630.98554
716.337	15849.5147
716.532	16043.77421
716.726	15691.68695
716.921	15835.3504
717.115	16023.53826
717.31	15896.05495
717.504	15598.61177
717.699	15849.5147
717.893	15525.77147
718.088	15794.88129
718.282	15572.30822
718.476	15450.90871
718.671	15380.09324
718.865	15525.77147
719.059	15347.72062
719.254	15552.07481
719.448	15305.23169
719.642	15327.48778
719.837	15034.11306
720.031	15414.48926
720.225	14975.43787
720.419	15297.13857
720.614	15523.74815
720.808	15493.39829
721.002	15210.13777
721.196	15204.06795
721.39	15163.60254
721.585	15175.74216
721.779	15487.32833
721.973	15467.09519
722.167	15123.13712
722.361	15230.37049
722.555	15141.34656
722.749	14837.8533
722.943	14795.36342
723.137	14639.56419
723.331	14930.92546
723.525	15011.85698
723.719	14874.27298
723.913	15104.92768
724.107	15044.22945
724.301	15475.18844
724.495	15034.11306
724.689	15226.32394
724.883	14781.20006
725.077	14947.11181
725.271	14953.18169
725.465	14864.15642
725.659	14870.22636
725.853	14760.96662
726.046	15197.99814
726.24	15161.57927
726.434	14977.46116
726.628	15177.76543
726.822	14546.4865
727.015	15177.76543
727.209	14700.26581
727.403	14941.04193
727.596	14864.15642
727.79	15161.57927
727.984	14821.66672
728.177	15074.57858
728.371	14878.3196
728.565	14902.59927
728.758	15153.48619
728.952	14930.92546
729.146	14870.22636
729.339	14916.76237
729.533	14629.44716
729.726	15080.6484
729.92	14797.38676
730.113	14991.62415
730.307	15032.08978
730.5	14894.50605
730.694	14926.87886
730.887	14633.49398
731.081	14910.69247
731.274	14939.01864
731.468	14872.24967
731.661	15115.04404
731.854	15034.11306
732.048	15036.13634
732.241	14714.4294
732.435	14934.97205
732.628	14740.7331
732.821	14437.21803
733.014	14902.59927
733.208	15013.88026
733.401	14920.80897
733.594	14629.44716
733.788	14750.84987
733.981	14550.53341
734.174	14864.15642
734.367	14750.84987
734.56	14900.57596
734.754	14783.2234
734.947	14882.36622
735.14	14777.15338
735.333	14688.12556
735.526	14663.84494
735.719	14449.35917
735.912	14141.76496
736.105	14421.02976
736.298	14257.1177
736.491	14740.7331
736.684	14718.47614
736.877	14684.0788
737.07	14651.70458
737.263	14724.54623
737.456	14649.68119
737.649	14647.65779
737.842	14900.57596
738.035	14667.89172
738.228	14661.82155
738.421	14601.11935
738.614	14603.14277
738.807	14708.3593
739	14291.51993
739.192	14350.20491
739.385	14574.81475
739.578	14534.34575
739.771	14554.58031
739.964	14275.33071
740.156	14483.75879
740.349	14056.76381
740.542	14218.6675
740.735	14030.45311
740.927	14263.18872
741.12	14382.58223
741.313	14688.12556
741.505	14125.57456
741.698	14289.49629
741.891	14048.66825
742.083	14159.97899
742.276	14238.90453
742.468	14285.44899
742.661	14435.1945
742.854	14218.6675
743.046	14168.07406
743.239	14010.21384
743.431	14064.85933
743.624	13643.83604
743.816	13437.32275
744.009	13830.07301
744.201	13801.73426
744.393	14182.24035
744.586	13809.83111
744.778	13987.95036
744.971	13971.75855
745.163	14352.22851
745.355	13898.89335
745.548	13807.8069
745.74	14079.0264
745.932	14008.1899
746.125	14184.2641
746.317	14115.4555
746.509	14224.73863
746.702	14190.33533
746.894	14002.11807
747.086	13720.7632
747.278	13927.23022
747.471	13955.56658
747.663	13692.42216
747.855	13649.9094
748.047	13524.38685
748.239	13979.85448
748.431	13734.93349
748.623	14006.16596
748.815	13870.55596
749.008	14008.1899
749.2	13809.83111
749.392	13655.98274
749.584	13601.32161
749.776	13985.92639
749.968	13487.94225
750.16	13846.26632
750.352	13749.10363
750.544	13904.96559
750.736	13890.79701
750.928	13763.27362
751.12	13550.70721
751.311	13688.37338
751.503	13927.23022
751.695	13680.2758
751.887	13793.63738
752.079	13678.2514
752.271	13327.97627
752.463	13801.73426
752.654	13631.68921
752.846	13915.08592
753.038	13518.31283
753.23	13615.49325
753.421	13609.41971
753.613	13601.32161
753.805	13583.10068
753.997	13487.94225
754.188	13655.98274
754.38	13787.56468
754.572	13730.88485
754.763	13939.37444
754.955	13631.68921
755.146	13639.78711
755.338	13631.68921
755.53	13655.98274
755.721	13813.87951
755.913	13826.02465
756.104	13611.44423
756.296	13467.69473
756.487	13093.04186
756.679	13380.62603
756.87	12943.13687
757.062	12872.22611
757.253	12900.59119
757.445	13236.845
757.636	13315.82593
757.827	13269.24822
758.019	13303.67544
758.21	13246.97113
758.401	12728.35805
758.593	13068.73477
758.784	12598.6492
758.975	12477.02427
759.167	12537.83959
759.358	12815.49276
759.549	12768.88712
759.74	13107.22067
759.932	12953.26645
760.123	13064.68353
760.314	13125.45023
760.505	12878.30443
760.696	12326.98775
760.888	12355.37589
761.079	12408.09315
761.27	12472.96971
761.461	12501.35109
761.652	12547.97492
761.843	12211.39323
762.034	12298.59825
762.225	12022.7402
762.416	12262.09544
762.607	12069.40247
762.798	12043.02865
762.989	12047.08625
763.18	12320.9044
763.371	12408.09315
763.562	12477.02427
763.753	12223.56217
763.944	12543.92081
764.135	12501.35109
764.326	12513.51416
764.517	12408.09315
764.708	12525.67699
764.899	12180.96972
765.089	12412.14813
765.28	12282.37506
765.471	12517.56846
765.662	12201.25225
765.853	12294.5425
766.043	12182.99801
766.234	12288.45881
766.425	11815.75193
766.615	12014.6246
766.806	11984.18997
766.997	12067.37376
767.187	11836.04871
767.378	11967.95743
767.569	11744.70648
767.759	11941.57846
767.95	11628.98086
768.141	11689.89269
768.331	11718.31545
768.522	11785.30517
768.712	12036.9422
768.903	12170.82819
769.093	12008.53782
769.284	11941.57846
769.474	11783.27532
769.665	11679.74128
769.855	11547.75233
770.046	11509.16356
770.236	11332.42326
770.426	11509.16356
770.617	11403.53457
770.807	11275.52538
770.998	11633.0419
771.188	11681.77158
771.378	11328.35939
771.569	11488.85231
771.759	11578.21476
771.949	11698.01365
772.139	11712.22501
772.33	11354.77384
772.52	11123.08047
772.71	11348.67835
772.9	11161.70543
773.09	11513.22569
773.281	11452.28965
773.471	11210.48941
773.661	11324.29548
773.851	11116.98143
774.041	11039.71862
774.231	11267.39646
774.421	11037.68518
774.611	11214.55446
774.802	11098.68376
774.992	11265.3642
775.182	11031.58478
775.372	10980.74425
775.562	10990.91291
775.752	11051.91906
775.942	10724.39962
776.131	11131.21236
776.321	10834.28417
776.511	11072.25224
776.701	11208.45686
776.891	10844.45693
777.081	10779.34621
777.271	10754.92658
777.461	10598.19265
777.651	10502.48789
777.84	10306.91771
778.03	10685.72827
778.22	10649.08821
778.41	10826.14575
778.599	10638.90971
778.789	10699.97612
778.979	10598.19265
779.169	10754.92658
779.358	10779.34621
779.548	10864.80158
779.738	10704.04682
779.927	10541.1804
780.117	10561.54304
780.307	10645.01685
780.496	10437.31116
780.686	10722.3644
780.875	10506.561
781.065	10298.76632
781.254	10522.85294
781.444	10494.34152
781.633	10310.99332
781.823	10543.21672
782.012	10315.06888
782.202	10351.74655
782.391	10355.82158
782.581	10433.23718
782.77	10205.0098
782.96	10229.47079
783.149	9946.00774
783.338	10123.45884
783.528	10127.53692
783.717	10119.38071
783.906	10139.77081
784.096	10062.28097
784.285	10094.91074
784.474	9878.67012
784.663	9735.77921
784.853	9837.85163
785.042	9825.60492
785.231	9913.36119
785.42	9662.26354
785.61	9911.32066
785.799	9797.02718
785.988	10076.55694
786.177	9735.77921
786.366	10017.40911
786.555	9897.03651
786.744	9780.69572
786.933	9578.51291
787.122	10029.64757
787.312	9735.77921
787.501	9856.22069
787.69	9731.69553
787.879	10164.23709
788.068	9652.05145
788.257	9690.85533
788.445	9453.85923
788.634	9964.36978
788.823	9821.52257
789.012	9964.36978
789.201	9741.90462
789.39	9813.35768
789.579	9527.4325
789.768	9553.99555
789.957	9472.2545
790.145	9568.29762
790.334	9701.06596
790.523	9707.19215
790.712	9699.02386
790.9	9711.2762
791.089	9462.03507
791.278	9392.53221
791.467	9459.99113
791.655	9498.82314
791.844	9228.92115
792.033	9396.62113
792.221	9196.1861
792.41	9396.62113
792.599	9353.68417
792.787	9378.22046
792.976	9116.37621
793.164	9263.69741
793.353	9104.09545
793.541	9235.05849
793.73	9392.53221
793.918	9208.46225
794.107	8848.10324
794.295	8870.64167
794.484	8870.64167
794.672	9032.4453
794.861	9028.35036
795.049	9255.51519
795.238	9087.72015
795.426	9114.32946
795.614	8946.43687
795.803	8938.24397
795.991	8958.72569
796.179	9155.2612
796.368	8940.29222
796.556	9245.28705
796.744	8790.72284
796.932	9032.4453
797.121	8764.07711
797.309	8827.61187
797.497	8837.85778
797.685	8852.2013
797.874	8663.61533
798.062	8741.5283
798.25	8581.57273
798.438	8880.8857
798.626	8610.29104
798.814	8651.31084
799.002	8710.77636
799.19	8700.52479
799.378	8577.46981
799.566	8708.72609
799.755	8222.27797
799.943	8499.50007
800.131	8478.97716
800.318	8962.82182
800.506	8610.29104
800.694	8376.33388
800.882	8133.90253
801.07	8544.64377
801.258	8472.81991
801.446	8610.29104
801.634	8218.1683
801.822	8456.39976
802.01	8183.23289
802.197	8507.7087
802.385	8234.60651
802.573	8220.22314
802.761	8355.79944
802.949	8396.86639
803.136	8051.65959
803.324	8460.50491
803.512	8466.6625
803.699	8487.18655
803.887	8376.33388
804.075	8645.15835
804.262	8218.1683
804.45	8470.76746
804.638	8302.40079
804.825	8698.47443
805.013	8690.27277
805.201	8936.1957
805.388	8571.3153
805.576	8677.96972
805.763	8733.32819
805.951	8538.48835
806.138	8329.10176
806.326	8433.82004
806.513	8333.20931
806.701	8472.81991
806.888	8429.71438
807.075	8524.12504
807.263	8442.03111
807.45	8743.57829
807.638	8343.47785
807.825	8794.82191
808.012	8501.55225
808.2	8587.72696
808.387	8314.72472
808.574	8538.48835
808.761	8366.06691
808.949	8708.72609
809.136	8513.86497
809.323	8458.45234
809.51	8357.85297
809.698	8347.58512
809.885	8320.88643
810.072	8450.24188
810.259	8413.291
810.446	8269.53351
810.633	8532.33276
810.82	8807.11869
811.008	8661.56463
811.195	8628.75087
811.382	8429.71438
811.569	8503.60442
811.756	8439.97837
811.943	8741.5283
812.13	8390.70684
812.317	8569.26376
812.504	8636.95476
812.691	8764.07711
812.878	8476.92476
813.064	8573.36682
813.251	8448.18922
813.438	8677.96972
813.625	8285.96778
813.812	8411.23799
813.999	8248.9889
814.186	8337.31678
814.372	8269.53351
814.559	8039.32036
814.746	8131.84685
814.933	8589.77834
815.12	8499.50007
815.306	8528.22894
815.493	8448.18922
815.68	8643.10748
815.866	8304.45483
816.053	8528.22894
816.24	8474.87235
816.426	8561.0574
816.613	8359.90649
816.799	8417.39696
816.986	8251.04345
817.173	8470.76746
817.359	8158.56915
817.546	8499.50007
817.732	8456.39976
817.919	8671.81795
818.105	8544.64377
818.292	8575.41833
818.478	8556.9541
818.665	8581.57273
818.851	8634.90382
819.037	8741.5283
819.224	8314.72472
819.41	8281.85933
819.597	8012.58287
819.783	8197.61875
819.969	8035.20712
820.156	8131.84685
820.342	7961.15494
820.528	7957.04016
820.714	7996.12732
820.901	8230.49707
821.087	8183.23289
821.273	8172.95668
821.459	8205.83881
821.646	8382.49384
821.832	8199.6738
822.018	8448.18922
822.204	8090.729
822.39	8421.50285
822.576	8031.09381
822.762	8053.71605
822.948	8082.50446
823.134	8308.56284
823.32	8057.82893
823.507	7998.18433
823.693	7965.26965
823.879	8135.95819
824.065	8043.43352
824.25	8232.5518
824.436	7985.84194
824.622	7825.32355
824.808	7606.97991
824.994	7543.0797
825.18	7433.78312
825.366	7691.46167
825.552	7367.76329
825.738	7693.52176
825.923	7689.40156
826.109	7707.94177
826.295	7460.59733
826.481	7864.43575
826.667	7833.55832
826.852	7850.02687
827.038	7569.87906
827.224	7732.65938
827.409	7526.58598
827.595	7598.73588
827.781	7343.00009
827.966	7312.04168
828.152	7268.6916
828.338	7155.10956
828.523	7041.46027
828.709	7427.59471
828.894	7091.061
829.08	7318.23375
829.266	7245.98054
829.451	7571.9404
829.637	7254.23941
829.822	7239.78615
830.008	7153.04381
830.193	7359.50924
830.378	7186.09312
830.564	7701.76189
830.749	7212.9415
830.935	7355.38208
831.12	6948.42405
831.305	7411.09131
831.491	7210.87638
831.676	7454.40976
831.861	7272.82059
832.047	7000.11647
832.232	6878.09969
832.417	7165.43797
832.602	6933.94764
832.788	7088.99456
832.973	7000.11647
833.158	7233.59156
833.343	7049.72796
833.528	7235.65645
833.714	6869.82451
833.899	7101.39286
834.084	6797.40119
834.269	7095.19381
834.454	6902.92304
834.639	7101.39286
834.824	7136.51702
835.009	7171.63475
835.194	7055.92848
835.379	7355.38208
835.564	6898.78604
835.749	7045.59416
835.934	7014.58782
836.119	7212.9415
836.304	7006.31861
836.489	7049.72796
836.674	6760.14404
836.859	6921.53841
837.044	6698.03231
837.228	6727.02035
837.413	6669.03976
837.598	6793.26188
837.783	6565.45813
837.968	6892.58037
838.152	6507.42719
838.337	6517.79119
838.522	6704.24441
838.707	6847.0659
838.891	6353.97206
839.076	6582.03507
839.261	6401.68123
839.445	6745.65315
839.63	6590.32298
839.815	6613.11284
839.999	6524.00931
840.184	6749.79352
840.368	6453.52503
840.553	6635.89991
840.737	6441.08385
840.922	6598.61053
841.106	6374.71669
841.291	6592.3949
841.475	6445.231
841.66	6640.04272
841.844	6486.69745
842.029	6540.58995
842.213	6407.90325
842.397	6465.96539
842.582	6351.89747
842.766	6468.0387
842.951	6007.1906
843.135	6403.75526
843.319	6254.36532
843.504	6202.46545
843.688	6270.97019
843.872	6210.77042
844.056	5984.3257
844.241	6208.69421
844.425	5888.67793
844.609	5872.03844
844.793	5786.73735
844.977	5967.69489
845.161	5770.08861
845.346	6054.98982
845.53	5676.4113
845.714	6146.39713
845.898	5859.55783
846.082	5863.71813
846.266	5695.15058
846.45	5936.50805
846.634	5672.24675
846.818	6183.77791
847.002	5998.87642
847.186	6079.9236
847.37	6075.76821
847.554	5795.06115
847.738	5684.74011
847.922	6046.67781
848.106	5797.14205
848.29	5901.15655
848.473	5855.39744
848.657	6017.58279
848.841	5861.63799
849.025	6038.36542
849.209	5561.85193
849.392	5722.21507
849.576	5518.09227
849.76	5609.76725
849.944	5663.91738
850.127	5618.09908
850.311	5353.37965
850.495	5591.01926
850.678	5415.94602
850.862	5765.92619
851.046	5309.57064
851.229	5351.29374
851.413	5430.5418
851.596	5422.2015
851.78	5261.57748
851.964	5551.4339
852.147	5021.42677
852.331	5484.7446
852.514	5330.43336
852.698	5255.3166
852.881	5207.30947
853.065	5263.6644
853.248	5263.6644
853.431	5269.92501
853.615	5119.61246
853.798	5468.06851
853.982	5021.42677
854.165	5309.57064
854.348	5025.60592
854.532	5159.29
854.715	4835.36116
854.898	5117.52393
855.081	4630.27118
855.265	4908.55471
855.448	4803.98394
855.631	5048.58963
855.814	4860.45925
855.997	4969.17953
856.181	4743.30681
856.364	5100.81491
856.547	4985.90021
856.73	5061.12502
856.913	4868.82455
857.096	5155.11381
857.279	4845.8191
857.462	5019.33716
857.645	4808.16786
857.828	4824.90266
858.011	4795.61581
858.194	4703.5425
858.377	4896.00924
858.56	5219.83426
858.743	5165.55411
858.926	5104.9923
859.109	5021.42677
859.292	4900.19116
859.475	4806.07591
859.658	5013.06818
859.841	4724.4721
860.023	4711.91461
860.206	4732.84331
860.389	4942.00528
860.572	4489.93264
860.755	4762.13968
860.937	4768.4169
861.12	4791.43162
861.303	4521.36037
861.486	4667.95701
861.668	4527.64532
861.851	4655.39588
862.034	4307.5546
862.216	4487.83728
862.399	4315.9434
862.581	4227.84385
862.764	4185.87846
862.947	4380.9449
863.129	4187.97693
863.312	4221.54958
863.494	4062.03149
863.677	4053.63246
863.859	4112.4187
864.042	4135.50883
864.224	4001.13104
864.406	4276.09352
864.589	3971.72465
864.771	4022.13315
864.954	3826.73525
865.136	4148.10237
865.318	3927.60758
865.501	3986.42834
865.683	3971.72465
865.865	4131.31081
866.048	3910.79873
866.23	4011.63235
866.412	4112.4187
866.594	4020.03303
866.777	3780.48682
866.959	4024.23325
867.141	3753.15375
867.323	4154.39886
867.505	3896.08993
867.687	4036.83341
867.869	4020.03303
868.052	4085.12712
868.234	4091.42549
868.416	4211.05871
868.598	3936.01152
868.78	3839.34681
868.962	3826.73525
869.144	4041.03329
869.326	3767.87197
869.508	3866.66938
869.69	3713.1995
869.872	3826.73525
870.054	3675.3417
870.236	3675.3417
870.417	3542.79107
870.599	4013.73255
870.781	3633.27022
870.963	3662.72105
871.145	3547.00017
871.327	3666.92801
871.508	3555.41813
871.69	3605.9197
871.872	3561.73142
872.054	3927.60758
872.235	3618.54341
872.417	3812.02088
872.599	3919.20331
872.78	3734.22892
872.962	3795.20327
873.144	3904.49508
873.325	3704.78719
873.507	3759.46167
873.689	3652.20332
873.87	3706.8903
874.052	3696.37458
874.233	3599.60759
874.415	3536.47729
874.596	3849.85589
874.778	3477.54074
874.959	3677.44507
875.141	3694.27138
875.322	3921.30441
875.503	3460.69911
875.685	3540.6865
875.866	3342.77578
876.048	3498.59115
876.229	3281.68684
876.41	3473.33044
876.592	3330.13788
876.773	3532.26801
876.954	3207.93983
877.136	3574.35748
877.317	3391.21527
877.498	3704.78719
877.679	3568.04453
877.86	3696.37458
878.042	3776.28195
878.223	3816.22508
878.404	3570.14887
878.585	3626.95884
878.766	3338.56321
878.947	3685.85838
879.128	3456.48852
879.309	3555.41813
879.49	3304.86021
879.672	3582.77448
879.853	3416.48436
880.034	3654.30691
880.215	3389.1094
880.396	3589.08704
880.576	3410.16733
880.757	3683.75508
880.938	3591.19119
881.119	3603.81568
881.3	3532.26801
881.481	3730.02319
881.662	3456.48852
881.843	3635.37397
882.023	3589.08704
882.204	3767.87197
882.385	3309.07332
882.566	3549.10469
882.747	3382.79168
882.927	3448.06713
883.108	3416.48436
883.289	3490.1712
883.469	3498.59115
883.65	3601.71165
883.831	3456.48852
884.011	3597.50352
884.192	3538.5819
884.373	3662.72105
884.553	3319.60581
884.734	3467.01485
884.914	3271.15282
885.095	3479.64586
885.275	3357.51921
885.456	3626.95884
885.636	3342.77578
885.817	3812.02088
885.997	3416.48436
886.178	3595.39943
886.358	3317.49935
886.538	3704.78719
886.719	3652.20332
886.899	3946.51599
887.08	3603.81568
887.26	3862.46613
887.44	3540.6865
887.621	3700.58092
887.801	3410.16733
887.981	3614.33558
888.161	3456.48852
888.342	3414.3787
888.522	3315.39287
888.702	3788.89634
888.882	3458.59382
889.062	3645.89246
889.242	3637.47771
889.423	3734.22892
889.603	3633.27022
889.783	3872.97412
889.963	3591.19119
890.143	3799.40779
890.323	3456.48852
890.503	3721.6115
890.683	3481.75097
890.863	3346.98828
891.043	3321.71226
891.223	3662.72105
891.403	3622.75116
891.583	3736.33176
891.763	3452.27786
891.943	3549.10469
892.122	3382.79168
892.302	3498.59115
892.482	3384.8976
892.662	3540.6865
892.842	3433.329
893.022	3601.71165
893.201	3515.43017
893.381	3618.54341
893.561	3496.48619
893.741	3540.6865
893.92	3317.49935
894.1	3660.61754
894.28	3452.27786
894.459	3483.85605
894.639	3296.43377
894.819	3475.4356
894.998	3271.15282
895.178	3393.32113
895.357	3304.86021
895.537	3304.86021
895.716	3096.22742
895.896	3285.90033
896.075	3020.32183
896.255	3304.86021
896.434	3056.16865
896.614	3083.57789
896.793	2942.28708
896.973	3028.75677
897.152	2851.5727
897.331	3222.69087
897.511	3102.55197
897.69	3167.89722
897.87	2893.76876
898.049	3136.28048
898.228	2727.06194
898.407	3092.01097
898.587	2798.81971
898.766	2980.2525
898.945	2790.37843
899.124	2900.09767
899.304	2663.7336
899.483	2847.35278
899.662	2697.51016
899.841	3013.99546
900.02	2779.82652
900.199	3011.88664
900.378	2828.36246
900.557	2980.2525
900.737	2891.65909
900.916	2876.89102
901.095	2570.83155
901.274	2824.14223
901.453	2452.55949
901.632	2648.95533
901.811	2615.17413
901.989	2950.72426
902.168	2572.94323
902.347	2739.7262
902.526	2412.42356
902.705	2621.50835
902.884	2315.2369
903.063	2480.01867
903.242	2325.80169
903.42	2581.38979
903.599	2205.34931
903.778	2480.01867
903.957	2332.14045
904.135	2427.21093
904.314	2192.66843
904.493	2427.21093
904.672	2243.39009
904.85	2344.81769
905.029	2207.46276
905.207	2406.08596
905.386	2260.29618
905.565	2256.06971
905.743	2199.00891
905.922	2209.5762
906.1	2114.4631
906.279	2072.18552
906.457	1955.9078
906.636	2228.59679
906.814	2059.50168
906.993	2125.03203
907.171	1845.95577
907.35	2110.23548
907.528	1837.49734
907.707	1841.72656
907.885	1706.38311
908.063	1763.48308
908.242	1714.84252
908.42	1835.38272
908.598	1721.18705
908.777	1801.54821
908.955	1649.28083
909.133	1676.77477
909.311	1403.93844
909.49	1801.54821
909.668	1446.23943
909.846	1795.20411
910.024	1782.51581
910.202	1879.78869
910.38	1708.49796
910.559	1911.50586
910.737	1657.74055
910.915	1934.76434
911.093	1649.28083
911.271	1645.05095
911.449	1535.07136
911.627	1818.46561
911.805	1710.61282
911.983	1886.13222
912.161	1761.36832
912.339	2080.64128
912.517	1776.1716
912.695	1953.79348
912.872	1617.55653
913.05	1945.33614
913.228	1615.44155
913.406	1892.4757
913.584	1795.20411
913.762	1924.19239
913.939	1735.99082
914.117	1757.13877
914.295	1744.45004
914.473	1767.71261
914.65	1581.60175
914.828	1702.15338
915.006	1439.89428
915.184	1685.23436
915.361	1503.34579
915.539	1848.07036
915.716	1564.68169
915.894	1763.48308
916.072	1590.06175
916.249	1623.90143
916.427	1488.54046
916.604	1769.82736
916.782	1594.29173
916.959	1814.23629
917.137	1444.12438
917.314	1414.51368
917.492	1353.17761
917.669	1554.1066
917.847	1452.58459
918.024	1626.01639
918.201	1302.41753
918.379	1505.46083
918.556	1382.78803
918.733	1551.99158
918.911	1380.67299
919.088	1634.47622
919.265	1332.02746
919.442	1507.57587
919.62	1372.21285
919.797	1484.31036
919.974	1281.26782
920.151	1329.91245
920.328	1160.71971
920.506	1346.83255
920.683	1158.60493
920.86	1410.28358
921.037	1310.87747
921.214	1422.97387
921.391	1281.26782
921.568	1418.74377
921.745	1141.68685
921.922	1255.88846
922.099	1162.8345
922.276	1353.17761
922.453	1167.06407
922.63	1289.72768
922.807	1245.31384
922.984	1272.80799
923.161	1107.8515
923.338	1336.25748
923.514	957.72367
923.691	1078.24658
923.868	1040.18461
924.045	1143.80159
924.222	1006.35331
924.399	1052.87173
924.575	1101.50751
924.752	1120.53962
924.929	1031.72664
925.105	1183.98254
925.282	871.0455
925.459	1025.38323
925.635	803.40391
925.812	790.72215
925.989	847.79268
926.165	1019.03987
926.342	841.45119
926.518	883.72929
926.695	978.86656
926.871	1002.12451
927.048	881.6153
927.224	830.8822
927.401	862.58981
927.577	875.2734
927.754	858.36202
927.93	926.01066
928.107	904.86958
928.283	1116.31023
928.459	778.04075
928.636	847.79268
928.812	811.8586
928.988	780.15429
929.165	748.45219
929.341	830.8822
929.517	767.47318
929.693	890.07129
929.87	619.55552
930.046	828.76843
930.222	701.96001
930.398	737.88533
930.574	685.05508
930.751	799.17662
930.927	687.16816
931.103	689.28125
931.279	638.57033
931.455	716.75241
931.631	566.742
931.807	680.82896
931.983	549.84342
932.159	704.07318
932.335	608.99218
932.511	594.20402
932.687	454.80577
932.863	636.45753
933.039	541.39445
933.215	541.39445
933.391	497.04108
933.566	579.4165
933.742	541.39445
933.918	524.49719
934.094	461.14068
934.27	560.40493
934.445	433.6904
934.621	535.05787
934.797	410.46532
934.973	444.24789
935.148	425.2447
935.324	467.47573
935.5	376.6869
935.675	366.13202
935.851	378.79793
936.027	397.79792
936.202	313.36408
936.378	296.48068
936.553	260.60738
936.729	292.26001
936.904	313.36408
937.08	279.59846
937.255	172.00315
937.431	231.06877
937.606	195.20561
937.782	165.67563
937.957	197.31505
938.133	197.31505
938.308	250.05744
938.483	260.60738
938.659	140.36746
938.834	209.9721
939.009	169.89395
939.185	136.14973
939.36	98.19403
939.535	167.78478
939.71	144.58528
939.886	180.44012
940.061	155.13019
940.236	119.27966
940.411	121.38835
940.586	136.14973
940.761	93.97717
940.937	169.89395
941.112	106.62802
941.287	155.13019
941.462	64.46165
941.637	159.34831
941.812	60.24551
941.987	131.93208
942.162	56.02946
942.337	119.27966
942.512	75.0024
942.687	98.19403
942.862	96.08559
943.037	64.46165
943.212	138.25859
943.386	163.5665
943.561	136.14973
943.736	123.49705
943.911	5.44413
944.086	195.20561
944.26	22.3044
944.435	58.13747
944.61	37.05838
944.785	70.78603
944.959	96.08559
945.134	22.3044
945.309	51.8135
945.483	127.71452
945.658	153.02117
945.833	134.0409
946.007	190.9868
946.182	75.0024
946.357	153.02117
946.531	138.25859
946.706	102.41098
946.88	127.71452
947.055	96.08559
947.229	112.95374
947.404	144.58528
947.578	157.23924
947.752	121.38835
947.927	79.21886
948.101	102.41098
948.276	106.62802
948.45	89.7604
948.624	34.9506
948.799	115.06236
948.973	104.51949
949.147	112.95374
949.321	121.38835
949.496	104.51949
949.67	110.84515
949.844	102.41098
950.018	81.32712
950.193	148.80318
950.367	155.13019
950.541	104.51949
950.715	153.02117
950.889	81.32712
951.063	117.171
951.237	85.54372
951.411	142.47636
951.585	58.13747
951.759	146.69422
951.933	68.67788
952.107	96.08559
952.281	85.54372
952.455	115.06236
952.629	110.84515
952.803	123.49705
952.977	127.71452
953.151	112.95374
953.325	34.9506
953.499	93.97717
953.672	77.11062
953.846	125.60578
954.02	127.71452
954.194	64.46165
954.368	85.54372
954.541	121.38835
954.715	60.24551
954.889	79.21886
955.062	79.21886
955.236	102.41098
955.41	68.67788
955.583	98.19403
955.757	62.35357
955.93	142.47636
956.104	87.65205
956.278	34.9506
956.451	136.14973
956.625	121.38835
956.798	81.32712
956.972	142.47636
957.145	77.11062
957.319	28.62739
957.492	68.67788
957.665	72.8942
957.839	102.41098
958.012	72.8942
958.185	174.11236
958.359	193.0962
958.532	87.65205
958.705	127.71452
958.879	51.8135
959.052	51.8135
959.225	119.27966
959.398	51.8135
959.572	89.7604
959.745	127.71452
959.918	193.0962
960.091	157.23924
960.264	115.06236
960.438	129.82329
960.611	89.7604
960.784	131.93208
960.957	153.02117
961.13	108.73657
961.303	32.84284
961.476	224.73956
961.649	24.41204
961.822	60.24551
961.995	85.54372
962.168	85.54372
962.341	96.08559
962.514	123.49705
962.686	98.19403
962.859	104.51949
963.032	144.58528
963.205	190.9868
963.378	102.41098
963.551	34.9506
963.723	89.7604
963.896	178.33085
964.069	146.69422
964.242	123.49705
964.414	155.13019
964.587	165.67563
964.76	62.35357
964.932	81.32712
965.105	117.171
965.278	81.32712
965.45	127.71452
965.623	127.71452
965.795	60.24551
965.968	119.27966
966.14	119.27966
966.313	110.84515
966.485	20.19678
966.658	87.65205
966.83	134.0409
967.003	49.70556
967.175	110.84515
967.348	89.7604
967.52	150.91217
967.692	72.8942
967.865	64.46165
968.037	60.24551
968.209	37.05838
968.382	22.3044
968.554	102.41098
968.726	136.14973
968.898	104.51949
969.071	98.19403
969.243	75.0024
969.415	43.38186
969.587	98.19403
969.759	123.49705
969.932	104.51949
970.104	119.27966
970.276	119.27966
970.448	127.71452
970.62	68.67788
970.792	41.27401
970.964	51.8135
971.136	127.71452
971.308	18.08919
971.48	62.35357
971.652	102.41098
971.824	129.82329
971.996	108.73657
972.168	190.9868
972.339	110.84515
972.511	62.35357
972.683	117.171
972.855	45.48974
973.027	66.56975
973.199	49.70556
973.37	85.54372
973.542	72.8942
973.714	28.62739
973.886	72.8942
974.057	72.8942
974.229	79.21886
974.401	5.44413
974.572	85.54372
974.744	9.65906
974.915	117.171
975.087	30.7351
975.259	98.19403
975.43	47.59764
975.602	9.65906
975.773	85.54372
975.945	85.54372
976.116	-9.30734
976.288	18.08919
976.459	85.54372
976.63	72.8942
976.802	47.59764
976.973	91.86877
977.145	144.58528
977.316	68.67788
977.487	51.8135
977.659	51.8135
977.83	129.82329
978.001	51.8135
978.172	37.05838
978.344	62.35357
978.515	131.93208
978.686	98.19403
978.857	161.45739
979.028	89.7604
979.2	56.02946
979.371	53.92147
979.542	28.62739
979.713	112.95374
979.884	64.46165
980.055	34.9506
980.226	37.05838
980.397	106.62802
980.568	70.78603
980.739	68.67788
980.91	119.27966
981.081	-2.98542
981.252	30.7351
981.423	30.7351
981.594	150.91217
981.765	102.41098
981.936	89.7604
982.106	72.8942
982.277	37.05838
982.448	68.67788
982.619	43.38186
982.79	24.41204
982.96	-9.30734
983.131	43.38186
983.302	60.24551
983.472	-11.4146
983.643	-15.62904
983.814	28.62739
983.984	127.71452
984.155	60.24551
984.326	39.16618
984.496	53.92147
984.667	34.9506
984.837	56.02946
985.008	34.9506
985.178	77.11062
985.349	75.0024
985.519	77.11062
985.69	79.21886
985.86	81.32712
986.031	89.7604
986.201	-55.66129
986.371	89.7604
986.542	64.46165
986.712	22.3044
986.882	47.59764
987.053	1.22931
987.223	75.0024
987.393	43.38186
987.563	72.8942
987.734	79.21886
987.904	60.24551
988.074	119.27966
988.244	70.78603
988.414	75.0024
988.585	-38.8067
988.755	51.8135
988.925	43.38186
989.095	37.05838
989.265	22.3044
989.435	98.19403
989.605	34.9506
989.775	64.46165
989.945	77.11062
990.115	28.62739
990.285	20.19678
990.455	26.51971
990.625	18.08919
990.795	43.38186
990.965	22.3044
991.134	26.51971
991.304	30.7351
991.474	53.92147
991.644	64.46165
991.814	81.32712
991.984	119.27966
992.153	77.11062
992.323	53.92147
992.493	81.32712
992.662	43.38186
992.832	9.65906
993.002	24.41204
993.171	49.70556
993.341	-2.98542
993.511	26.51971
993.68	43.38186
993.85	28.62739
994.019	49.70556
994.189	39.16618
994.358	127.71452
994.528	43.38186
994.697	62.35357
994.867	-19.84338
995.036	26.51971
995.206	32.84284
995.375	68.67788
995.544	26.51971
995.714	-17.73622
995.883	47.59764
996.052	-11.4146
996.222	34.9506
996.391	56.02946
996.56	18.08919
996.73	77.11062
996.899	51.8135
997.068	39.16618
997.237	96.08559
997.406	28.62739
997.576	1.22931
997.745	30.7351
997.914	20.19678
998.083	70.78603
998.252	66.56975
998.421	-2.98542
998.59	53.92147
998.759	34.9506
998.928	26.51971
999.097	43.38186
999.266	43.38186
999.435	18.08919
999.604	127.71452
999.773	47.59764
999.942	5.44413
1000.111	24.41204
1000.28	77.11062
1000.448	-28.27177
1000.617	-43.0205
1000.786	-15.62904
1000.955	20.19678
1001.124	39.16618
1001.292	45.48974
1001.461	47.59764
1001.63	87.65205
1001.798	72.8942
1001.967	60.24551
1002.136	30.7351
1002.304	51.8135
1002.473	-28.27177
1002.642	1.22931
1002.81	62.35357
1002.979	-7.20006
1003.147	47.59764
1003.316	22.3044
1003.484	22.3044
1003.653	45.48974
1003.821	34.9506
1003.99	34.9506
1004.158	37.05838
1004.327	30.7351
1004.495	60.24551
1004.663	32.84284
1004.832	26.51971
1005	-30.3788
1005.168	-45.12736
1005.337	-7.20006
1005.505	20.19678
1005.673	51.8135
1005.842	7.55158
1006.01	43.38186
1006.178	18.08919
1006.346	28.62739
1006.514	64.46165
1006.683	11.76656
1006.851	53.92147
1007.019	64.46165
1007.187	64.46165
1007.355	-40.91361
1007.523	32.84284
1007.691	9.65906
1007.859	83.43541
1008.027	68.67788
1008.195	47.59764
1008.363	60.24551
1008.531	41.27401
1008.699	11.76656
1008.867	30.7351
1009.035	-15.62904
1009.203	79.21886
1009.37	60.24551
1009.538	-49.34101
1009.706	43.38186
1009.874	110.84515
1010.042	51.8135
1010.209	-21.95051
1010.377	45.48974
1010.545	43.38186
1010.713	15.98162
1010.88	-7.20006
1011.048	1.22931
1011.216	60.24551
1011.383	68.67788
1011.551	-57.768
1011.718	-7.20006
1011.886	51.8135
1012.054	-7.20006
1012.221	18.08919
1012.389	51.8135
1012.556	43.38186
1012.724	37.05838
1012.891	1.22931
1013.058	-2.98542
1013.226	-5.09275
1013.393	53.92147
1013.561	89.7604
1013.728	28.62739
1013.895	-36.69976
1014.063	60.24551
1014.23	53.92147
1014.397	56.02946
1014.565	3.33671
1014.732	11.76656
1014.899	1.22931
1015.066	62.35357
1015.233	72.8942
1015.401	43.38186
1015.568	9.65906
1015.735	13.87408
1015.902	58.13747
1016.069	26.51971
1016.236	110.84515
1016.403	-5.09275
1016.57	5.44413
1016.737	1.22931
1016.904	11.76656
1017.071	89.7604
1017.238	93.97717
1017.405	-24.05762
1017.572	34.9506
1017.739	9.65906
1017.906	18.08919
1018.073	-5.09275
1018.24	43.38186
1018.407	45.48974
1018.573	-43.0205
1018.74	30.7351
1018.907	26.51971
1019.074	30.7351
1019.241	41.27401
1019.407	45.48974
1019.574	-49.34101
1019.741	-15.62904
1019.907	39.16618
1020.074	72.8942
1020.241	81.32712
1020.407	70.78603
1020.574	41.27401
1020.74	1.22931
1020.907	75.0024
1021.073	49.70556
1021.24	-13.52183
1021.406	-19.84338
1021.573	51.8135
1021.739	-53.55456
1021.906	89.7604
1022.072	22.3044
1022.239	34.9506
1022.405	28.62739
1022.571	18.08919
1022.738	26.51971
1022.904	3.33671
1023.07	15.98162
1023.237	53.92147
1023.403	93.97717
1023.569	56.02946
1023.735	79.21886
1023.902	68.67788
1024.068	-5.09275
1024.234	47.59764
1024.4	5.44413
1024.566	-5.09275
1024.732	41.27401
1024.898	-15.62904
1025.065	-36.69976
1025.231	-30.3788
1025.397	64.46165
1025.563	-11.4146
1025.729	-21.95051
1025.895	49.70556
1026.061	26.51971
1026.227	15.98162
1026.392	75.0024
1026.558	85.54372
1026.724	-19.84338
1026.89	5.44413
1027.056	-21.95051
1027.222	-26.16471
1027.388	72.8942
1027.553	-2.98542
1027.719	20.19678
1027.885	45.48974
1028.051	26.51971
1028.216	51.8135
1028.382	47.59764
1028.548	58.13747
1028.713	-11.4146
1028.879	37.05838
1029.045	5.44413
1029.21	20.19678
1029.376	51.8135
1029.541	-57.768
1029.707	5.44413
1029.873	28.62739
1030.038	18.08919
1030.204	83.43541
1030.369	-7.20006
1030.534	26.51971
1030.7	34.9506
1030.865	51.8135
1031.031	-47.2342
1031.196	-5.09275
1031.361	-49.34101
1031.527	-74.62077
1031.692	37.05838
1031.857	-21.95051
1032.023	43.38186
1032.188	39.16618
1032.353	-28.27177
1032.518	37.05838
1032.684	-45.12736
1032.849	1.22931
1033.014	34.9506
1033.179	87.65205
1033.344	32.84284
1033.509	3.33671
1033.674	-11.4146
1033.839	-7.20006
1034.004	13.87408
1034.17	30.7351
1034.335	1.22931
1034.5	22.3044
1034.664	9.65906
1034.829	26.51971
1034.994	-15.62904
1035.159	26.51971
1035.324	22.3044
1035.489	56.02946
1035.654	18.08919
1035.819	53.92147
1035.984	39.16618
1036.148	30.7351
1036.313	1.22931
1036.478	-5.09275
1036.643	39.16618
1036.807	1.22931
1036.972	-24.05762
1037.137	-7.20006
1037.301	5.44413
1037.466	22.3044
1037.631	-7.20006
1037.795	18.08919
1037.96	66.56975
1038.124	37.05838
1038.289	22.3044
1038.454	34.9506
1038.618	39.16618
1038.783	11.76656
1038.947	43.38186
1039.111	58.13747
1039.276	60.24551
1039.44	34.9506
1039.605	11.76656
1039.769	-40.91361
1039.933	13.87408
1040.098	77.11062
1040.262	45.48974
1040.426	7.55158
1040.591	1.22931
1040.755	9.65906
1040.919	43.38186
1041.083	43.38186
1041.248	9.65906
1041.412	66.56975
1041.576	47.59764
1041.74	37.05838
1041.904	9.65906
1042.068	68.67788
1042.232	45.48974
1042.397	26.51971
1042.561	32.84284
1042.725	5.44413
1042.889	-49.34101
1043.053	32.84284
1043.217	-15.62904
1043.381	75.0024
1043.544	77.11062
1043.708	-7.20006
1043.872	-7.20006
1044.036	30.7351
1044.2	15.98162
1044.364	5.44413
1044.528	24.41204
1044.691	60.24551
1044.855	-47.2342
1045.019	26.51971
1045.183	15.98162
1045.346	47.59764
1045.51	43.38186
1045.674	22.3044
1045.837	-9.30734
1046.001	7.55158
1046.165	64.46165
1046.328	-15.62904
1046.492	18.08919
1046.655	34.9506
1046.819	43.38186
1046.983	-24.05762
1047.146	3.33671
1047.31	70.78603
1047.473	13.87408
1047.636	26.51971
1047.8	-19.84338
1047.963	15.98162
1048.127	37.05838
1048.29	-2.98542
