Data from absorb_only_2.23.25_USB4F045381__29__0134.txt Node

Date: Sun Feb 23 19:17:06 EST 2025
User: ssocol
Spectrometer: USB4F04538
Trigger mode: 4
Integration Time (sec): 2.600000E-3
Scans to average: 1
Electric dark correction enabled: true
Nonlinearity correction enabled: true
Boxcar width: 0
XAxis mode: Wavelengths
Number of Pixels in Spectrum: 3648
>>>>>Begin Spectral Data<<<<<
345.52	76.23219
345.736	76.23219
345.952	76.23219
346.168	38.28793
346.384	-50.21884
346.6	-27.04265
346.816	88.88192
347.032	-33.36373
347.248	-100.77442
347.464	31.96461
347.68	-16.50703
347.896	-3.86348
348.112	12.99594
348.328	59.36716
348.544	10.88843
348.76	-33.36373
348.975	10.88843
349.191	17.21104
349.407	-18.61421
349.623	21.42623
349.839	-14.39983
350.055	93.09867
350.27	21.42623
350.486	59.36716
350.702	29.85689
350.918	12.99594
351.133	25.64151
351.349	21.42623
351.565	46.71934
351.781	-39.68458
351.996	-3.86348
352.212	-48.11204
352.428	21.42623
352.644	36.18013
352.859	19.31862
353.075	36.18013
353.291	-1.75614
353.506	15.10348
353.722	25.64151
353.938	40.39575
354.153	-3.86348
354.369	-16.50703
354.584	10.88843
354.8	10.88843
355.016	50.93519
355.231	0.35123
355.447	34.07236
355.662	10.88843
355.878	21.42623
356.093	-14.39983
356.309	-50.21884
356.524	6.67348
356.74	-16.50703
356.955	-92.34952
357.171	105.74946
357.386	31.96461
357.602	12.99594
357.817	48.82725
358.033	-16.50703
358.248	29.85689
358.464	69.90763
358.679	-1.75614
358.895	17.21104
359.11	97.31551
359.325	-22.82848
359.541	25.64151
359.756	29.85689
359.972	12.99594
360.187	12.99594
360.402	25.64151
360.618	46.71934
360.833	8.78094
361.048	15.10348
361.264	67.79949
361.479	-64.96574
361.694	0.35123
361.909	17.21104
362.125	53.04315
362.34	76.23219
362.555	25.64151
362.77	8.78094
362.986	-48.11204
363.201	36.18013
363.416	12.99594
363.631	34.07236
363.847	61.47521
364.062	2.45862
364.277	-31.25673
364.492	2.45862
364.707	69.90763
364.922	78.34042
365.138	46.71934
365.353	50.93519
365.568	-24.93558
365.783	-14.39983
365.998	6.67348
366.213	12.99594
366.428	17.21104
366.643	84.66525
366.858	-46.00521
367.073	27.74919
367.288	44.61145
367.503	25.64151
367.718	0.35123
367.933	-67.07234
368.148	23.53386
368.363	21.42623
368.578	8.78094
368.793	27.74919
369.008	93.09867
369.223	-8.0781
369.438	17.21104
369.653	63.58328
369.868	-20.72135
370.083	63.58328
370.298	-16.50703
370.513	-12.29261
370.728	27.74919
370.943	25.64151
371.157	34.07236
371.372	34.07236
371.587	29.85689
371.802	50.93519
372.017	-12.29261
372.232	53.04315
372.446	67.79949
372.661	67.79949
372.876	12.99594
373.091	29.85689
373.306	15.10348
373.52	34.07236
373.735	0.35123
373.95	29.85689
374.165	-3.86348
374.379	17.21104
374.594	-35.47071
374.809	27.74919
375.023	48.82725
375.238	21.42623
375.453	-24.93558
375.667	2.45862
375.882	-5.9708
376.097	17.21104
376.311	-37.57766
376.526	10.88843
376.741	8.78094
376.955	21.42623
377.17	21.42623
377.384	-35.47071
377.599	69.90763
377.813	40.39575
378.028	38.28793
378.242	44.61145
378.457	-10.18537
378.672	95.20708
378.886	69.90763
379.101	2.45862
379.315	-8.0781
379.53	12.99594
379.744	8.78094
379.958	93.09867
380.173	67.79949
380.387	-24.93558
380.602	-20.72135
380.816	34.07236
381.031	21.42623
381.245	12.99594
381.459	38.28793
381.674	2.45862
381.888	19.31862
382.103	25.64151
382.317	-16.50703
382.531	65.69137
382.746	-16.50703
382.96	-24.93558
383.174	17.21104
383.388	-46.00521
383.603	50.93519
383.817	-20.72135
384.031	80.44868
384.246	-22.82848
384.46	25.64151
384.674	40.39575
384.888	4.56604
385.103	-20.72135
385.317	131.05342
385.531	-29.1497
385.745	12.99594
385.959	8.78094
386.174	12.99594
386.388	53.04315
386.602	88.88192
386.816	-18.61421
387.03	-12.29261
387.244	-41.79148
387.458	67.79949
387.672	88.88192
387.887	8.78094
388.101	8.78094
388.315	36.18013
388.529	-46.00521
388.743	40.39575
388.957	8.78094
389.171	29.85689
389.385	17.21104
389.599	27.74919
389.813	-24.93558
390.027	34.07236
390.241	2.45862
390.455	4.56604
390.669	38.28793
390.883	105.74946
391.097	59.36716
391.311	27.74919
391.525	-10.18537
391.738	-18.61421
391.952	29.85689
392.166	-8.0781
392.38	12.99594
392.594	-48.11204
392.808	-14.39983
393.022	19.31862
393.236	19.31862
393.449	4.56604
393.663	38.28793
393.877	-33.36373
394.091	-8.0781
394.305	34.07236
394.518	-22.82848
394.732	25.64151
394.946	-33.36373
395.16	40.39575
395.373	12.99594
395.587	-18.61421
395.801	-14.39983
396.015	61.47521
396.228	25.64151
396.442	21.42623
396.656	21.42623
396.869	-5.9708
397.083	36.18013
397.297	-5.9708
397.51	-5.9708
397.724	97.31551
397.938	-24.93558
398.151	38.28793
398.365	72.0158
398.578	44.61145
398.792	21.42623
399.005	-31.25673
399.219	44.61145
399.433	21.42623
399.646	61.47521
399.86	34.07236
400.073	21.42623
400.287	93.09867
400.5	8.78094
400.714	6.67348
400.927	72.0158
401.141	76.23219
401.354	-3.86348
401.567	34.07236
401.781	76.23219
401.994	29.85689
402.208	17.21104
402.421	19.31862
402.635	46.71934
402.848	44.61145
403.061	8.78094
403.275	21.42623
403.488	2.45862
403.701	97.31551
403.915	-33.36373
404.128	76.23219
404.341	25.64151
404.555	55.15113
404.768	63.58328
404.981	36.18013
405.195	12.99594
405.408	31.96461
405.621	25.64151
405.834	10.88843
406.048	42.50359
406.261	-5.9708
406.474	21.42623
406.687	99.42397
406.9	-1.75614
407.114	12.99594
407.327	8.78094
407.54	34.07236
407.753	-22.82848
407.966	53.04315
408.179	72.0158
408.392	38.28793
408.605	-24.93558
408.819	19.31862
409.032	-54.43236
409.245	-5.9708
409.458	-31.25673
409.671	25.64151
409.884	-12.29261
410.097	15.10348
410.31	25.64151
410.523	12.99594
410.736	-64.96574
410.949	19.31862
411.162	-14.39983
411.375	69.90763
411.588	0.35123
411.801	61.47521
412.014	17.21104
412.227	8.78094
412.44	6.67348
412.653	76.23219
412.865	4.56604
413.078	-8.0781
413.291	48.82725
413.504	6.67348
413.717	67.79949
413.93	-12.29261
414.143	53.04315
414.356	-50.21884
414.568	46.71934
414.781	-29.1497
414.994	55.15113
415.207	55.15113
415.42	101.53244
415.632	12.99594
415.845	126.83588
416.058	-50.21884
416.271	34.07236
416.483	-56.53909
416.696	88.88192
416.909	50.93519
417.121	118.40105
417.334	72.0158
417.547	59.36716
417.759	29.85689
417.972	29.85689
418.185	-16.50703
418.397	69.90763
418.61	21.42623
418.823	27.74919
419.035	12.99594
419.248	19.31862
419.46	-18.61421
419.673	78.34042
419.885	10.88843
420.098	-3.86348
420.311	-16.50703
420.523	36.18013
420.736	36.18013
420.948	36.18013
421.161	46.71934
421.373	44.61145
421.586	-24.93558
421.798	95.20708
422.01	21.42623
422.223	97.31551
422.435	48.82725
422.648	55.15113
422.86	42.50359
423.073	63.58328
423.285	6.67348
423.497	84.66525
423.71	78.34042
423.922	-24.93558
424.134	-8.0781
424.347	63.58328
424.559	50.93519
424.771	50.93519
424.984	78.34042
425.196	0.35123
425.408	-18.61421
425.621	105.74946
425.833	93.09867
426.045	42.50359
426.257	21.42623
426.47	59.36716
426.682	50.93519
426.894	38.28793
427.106	36.18013
427.318	67.79949
427.531	46.71934
427.743	-33.36373
427.955	72.0158
428.167	103.64094
428.379	78.34042
428.591	2.45862
428.804	34.07236
429.016	50.93519
429.228	42.50359
429.44	72.0158
429.652	82.55695
429.864	36.18013
430.076	-1.75614
430.288	109.96657
430.5	67.79949
430.712	-31.25673
430.924	120.50972
431.136	-1.75614
431.348	38.28793
431.56	48.82725
431.772	-43.89836
431.984	48.82725
432.196	105.74946
432.408	93.09867
432.62	53.04315
432.832	63.58328
433.044	0.35123
433.256	36.18013
433.468	67.79949
433.679	29.85689
433.891	2.45862
434.103	0.35123
434.315	97.31551
434.527	34.07236
434.739	38.28793
434.95	19.31862
435.162	114.18377
435.374	109.96657
435.586	88.88192
435.798	50.93519
436.009	19.31862
436.221	17.21104
436.433	101.53244
436.645	93.09867
436.856	42.50359
437.068	55.15113
437.28	19.31862
437.491	17.21104
437.703	50.93519
437.915	86.77357
438.126	139.48876
438.338	69.90763
438.55	80.44868
438.761	25.64151
438.973	48.82725
439.184	86.77357
439.396	42.50359
439.608	152.14241
439.819	93.09867
440.031	78.34042
440.242	112.07516
440.454	118.40105
440.665	0.35123
440.877	137.37989
441.088	69.90763
441.3	76.23219
441.511	59.36716
441.723	72.0158
441.934	63.58328
442.146	80.44868
442.357	46.71934
442.569	76.23219
442.78	34.07236
442.991	27.74919
443.203	105.74946
443.414	93.09867
443.626	109.96657
443.837	80.44868
444.048	63.58328
444.26	93.09867
444.471	122.61842
444.682	169.01513
444.894	8.78094
445.105	72.0158
445.316	63.58328
445.528	65.69137
445.739	21.42623
445.95	101.53244
446.161	84.66525
446.373	114.18377
446.584	72.0158
446.795	128.94464
447.006	139.48876
447.217	128.94464
447.429	57.25913
447.64	44.61145
447.851	114.18377
448.062	133.16222
448.273	80.44868
448.484	10.88843
448.695	48.82725
448.907	55.15113
449.118	61.47521
449.329	103.64094
449.54	114.18377
449.751	133.16222
449.962	107.85801
450.173	120.50972
450.384	126.83588
450.595	147.92445
450.806	72.0158
451.017	139.48876
451.228	112.07516
451.439	69.90763
451.65	84.66525
451.861	179.56125
452.072	187.99852
452.283	135.27105
452.494	99.42397
452.705	143.70656
452.915	131.05342
453.126	133.16222
453.337	44.61145
453.548	160.57861
453.759	126.83588
453.97	145.81549
454.181	76.23219
454.391	143.70656
454.602	145.81549
454.813	105.74946
455.024	162.68771
455.235	76.23219
455.445	160.57861
455.656	249.1783
455.867	109.96657
456.078	76.23219
456.288	173.23352
456.499	126.83588
456.71	120.50972
456.921	156.36047
457.131	145.81549
457.342	196.43612
457.553	154.25143
457.763	156.36047
457.974	202.76452
458.184	152.14241
458.395	177.45199
458.606	196.43612
458.816	139.48876
459.027	171.12431
459.237	225.97022
459.448	242.84859
459.659	198.54556
459.869	234.40925
460.08	150.03342
460.29	204.87403
460.501	291.38072
460.711	198.54556
460.922	261.83823
461.132	221.75083
461.343	196.43612
461.553	257.61818
461.764	278.71921
461.974	236.51906
462.184	219.64116
462.395	337.81186
462.605	308.26376
462.816	314.5952
463.026	295.60137
463.236	310.37423
463.447	268.16846
463.657	247.06838
463.867	312.48471
464.078	320.92681
464.288	363.14154
464.498	325.14796
464.709	409.58562
464.919	306.15332
465.129	430.69919
465.339	325.14796
465.55	371.58532
465.76	388.47368
465.97	390.5848
466.18	289.27042
466.391	574.31144
466.601	456.03755
466.811	441.25656
467.021	346.25481
467.231	422.25357
467.441	481.37812
467.651	584.87373
467.862	468.70756
468.072	536.28998
468.282	456.03755
468.492	527.84137
468.702	593.3238
468.912	675.72246
469.122	622.90065
469.332	544.73881
469.542	633.46441
469.752	692.62699
469.962	698.96638
470.172	766.59256
470.382	686.28771
470.592	821.54645
470.802	753.91183
471.012	804.63688
471.222	726.4382
471.432	942.04314
471.642	779.27365
471.852	954.72848
472.062	954.72848
472.272	1026.61666
472.482	965.29979
472.691	910.33095
472.901	899.7606
473.111	1115.42911
473.321	1104.85572
473.531	1090.05319
473.741	1140.8057
473.95	1153.49423
474.16	1117.5438
474.37	1284.61651
474.58	1204.24977
474.79	1362.87147
474.999	1364.9865
475.209	1371.33159
475.419	1348.06631
475.628	1559.5704
475.838	1491.88929
476.048	1481.31404
476.258	1481.31404
476.467	1737.22446
476.677	1787.97885
476.886	1868.33498
477.096	1859.87676
477.306	1743.56888
477.515	1872.56406
477.725	1887.36568
477.935	1787.97885
478.144	1952.91251
478.354	1944.45516
478.563	2149.51595
478.773	2147.40227
478.982	2103.01322
479.192	2244.62285
479.401	2221.3761
479.611	2248.84941
479.82	2384.07967
480.03	2639.63063
480.239	2447.4547
480.449	2396.75543
480.658	2671.29842
480.868	2498.14773
481.077	2641.7419
481.287	2734.62537
481.496	2873.90216
481.705	2755.73173
481.915	3008.89911
482.124	2683.96474
482.333	2970.93736
482.543	3070.0493
482.752	3048.9645
482.961	3055.2901
483.171	3274.48864
483.38	2983.59182
483.589	3426.13508
483.799	3253.41958
484.008	3289.23597
484.217	3362.96002
484.426	3632.39365
484.636	3478.76873
484.845	3573.48069
485.054	3459.82191
485.263	3590.31446
485.472	3451.40063
485.682	3914.12558
485.891	3771.20096
486.1	3769.09844
486.309	3922.53004
486.518	4023.35821
486.727	3859.48878
486.936	4149.3267
487.146	4073.75459
487.355	4155.62315
487.564	4119.94076
487.773	4182.90559
487.982	4138.8322
488.191	4415.70863
488.4	4480.67798
488.609	4472.29602
488.818	4392.64994
489.027	4664.99126
489.236	4629.39874
489.445	4667.08474
489.654	4614.74112
489.863	5022.6457
490.072	4796.83619
490.281	4899.31993
490.49	4671.27162
490.698	5166.7721
490.907	4959.94769
491.116	5216.87709
491.325	5043.54042
491.534	5333.73641
491.743	5183.47526
491.952	5133.36133
492.16	5137.538
492.369	5367.1113
492.578	5283.66283
492.787	5617.2312
492.996	5585.98476
493.204	5610.98233
493.413	5475.5382
493.622	5592.23447
493.831	5685.95469
494.039	5802.51757
494.248	5696.3651
494.457	5696.3651
494.665	5792.11318
494.874	5910.68826
495.083	5875.33179
495.291	5790.03223
495.5	6014.6384
495.709	6307.46103
495.917	5812.92137
496.126	6199.52402
496.335	6174.60648
496.543	6157.99291
496.752	6251.42472
496.96	6348.95843
497.169	6282.55811
497.377	6292.93474
497.586	6282.55811
497.794	6483.76055
498.003	6394.59477
498.211	6510.70918
498.42	6423.63021
498.628	6713.73472
498.837	6579.09968
499.045	6724.08724
499.254	6467.17482
499.462	6759.28152
499.671	6858.61796
499.879	6664.03464
500.087	6811.02581
500.296	7024.06252
500.504	6964.10557
500.713	6912.40332
500.921	6990.98516
501.129	6734.43918
501.338	6879.30645
501.546	7065.40112
501.754	7278.15375
501.962	7218.27631
502.171	7226.53637
502.379	7449.42519
502.587	7053.00048
502.795	7340.07645
503.004	7088.13354
503.212	7490.67302
503.42	7323.56566
503.628	7404.04257
503.837	7280.21816
504.045	7694.72346
504.253	7463.86291
504.461	7764.75344
504.669	7647.33642
504.877	7564.8974
505.085	7566.9588
505.294	7974.69887
505.502	7542.22068
505.71	7752.39697
505.918	7478.29958
506.126	7742.09934
506.334	7571.08151
506.542	7867.69477
506.75	7888.2768
506.958	7877.98604
507.166	7995.27022
507.374	8050.80272
507.582	8059.0285
507.79	8102.20854
507.998	7873.86959
508.206	8176.21087
508.414	7904.74094
508.622	8116.59991
508.83	7962.35507
509.037	8248.13284
509.245	8087.81618
509.453	8469.91227
509.661	8338.51478
509.869	8293.32855
510.077	8202.92758
510.285	8432.9647
510.492	8396.01091
510.7	8580.71796
510.908	8625.84526
511.116	8564.30578
511.324	8371.37157
511.531	8492.48829
511.739	8547.8924
511.947	8554.04756
512.155	8523.27006
512.362	8554.04756
512.57	8551.99586
512.778	8646.35468
512.985	8586.87222
513.193	8634.04925
513.401	8617.64097
513.608	8820.61024
513.816	8765.27281
514.024	8880.03204
514.231	8695.56971
514.439	9011.11673
514.646	8787.81929
514.854	9152.36209
515.061	8707.8718
515.269	9033.63964
515.477	8808.31418
515.684	9266.93613
515.892	8945.58346
516.099	9395.76928
516.307	9307.84265
516.514	9250.57164
516.722	9297.61665
516.929	9076.63207
517.136	9150.31564
517.344	9479.57818
517.551	9279.20878
517.759	9698.17298
517.966	9477.53438
518.173	9551.10099
518.381	9608.30527
518.588	9385.54681
518.796	9450.96356
519.003	9434.61093
519.21	9401.90256
519.418	9577.66165
519.625	9365.10065
519.832	9622.60442
520.039	9861.49306
520.247	9718.5933
520.454	9653.24288
520.661	9912.51097
520.868	9681.83563
521.076	10012.47958
521.283	9777.80359
521.49	10085.90393
521.697	9953.31869
521.904	9773.72053
522.112	9749.22091
522.319	10138.92125
522.526	9839.04225
522.733	10301.99293
522.94	10216.3912
523.147	10200.08339
523.354	9853.32934
523.561	10393.68288
523.768	10291.8035
523.975	10338.67213
524.183	10261.23318
524.39	10528.1137
524.597	10546.44087
524.804	10452.75788
525.011	10458.86846
525.218	10434.42543
525.425	10354.97262
525.632	10481.27295
525.838	10289.76557
526.045	10424.24028
526.252	10513.85853
526.459	10460.9053
526.666	10678.77375
526.873	10770.35862
527.08	10725.58683
527.287	10654.34698
527.494	10760.18372
527.701	10699.12805
527.907	10737.79789
528.114	10922.94704
528.321	10994.13293
528.528	10914.81063
528.735	11126.29936
528.941	10998.20028
529.148	10727.62204
529.355	11006.33485
529.562	11311.25682
529.768	11236.06471
529.975	10983.96436
530.182	11461.59988
530.388	11197.44706
530.595	11248.25898
530.802	11126.29936
531.008	11396.59329
531.215	11368.14975
531.422	11557.06051
531.628	11260.45288
531.835	11396.59329
532.042	11473.78752
532.248	11563.15304
532.455	11579.39937
532.661	11715.43942
532.868	11526.59662
533.074	11806.78725
533.281	11617.98202
533.487	12021.89483
533.694	11650.47012
533.9	11969.14107
534.107	11644.37878
534.313	11954.93721
534.52	11741.8306
534.726	12001.60556
534.933	11638.28736
535.139	11786.48925
535.345	11739.80056
535.552	12044.21212
535.758	11946.82054
535.965	12038.12568
536.171	12305.86474
536.377	11999.57659
536.584	12074.64327
536.79	12040.1545
536.996	12123.3295
537.203	12131.44345
537.409	12184.18117
537.615	12360.61403
537.821	12117.24396
538.028	12271.39035
538.234	12468.07042
538.44	12366.69697
538.646	12143.61414
538.853	12528.88659
539.059	12348.44796
539.265	12557.2655
539.471	12587.67011
539.677	12447.79706
539.883	12640.36814
540.09	12532.94079
540.296	12581.5893
540.502	12814.64848
540.708	12506.588
540.914	12976.73283
541.12	13055.73695
541.326	13215.74856
541.532	12865.30352
541.738	13059.78824
541.944	13017.24871
542.15	13171.19126
542.356	12970.65527
542.562	13157.01348
542.768	13027.37737
542.974	13185.36882
543.18	13088.14674
543.386	13671.33466
543.592	13298.78145
543.798	13286.63075
544.004	13073.96761
544.21	13272.45473
544.415	13452.67758
544.621	13596.42898
544.827	13268.4044
545.033	13584.28167
545.239	13327.1325
545.445	13717.89538
545.651	13440.52872
545.856	13695.62742
546.062	13707.77363
546.268	13555.93747
546.474	13515.44453
546.679	13432.4294
546.885	13325.10745
547.091	13610.60068
547.297	13351.43275
547.502	13572.13424
547.708	13766.47871
547.914	13766.47871
548.119	13867.68845
548.325	13464.82631
548.531	13349.40775
548.736	13802.91506
548.942	13640.96805
549.147	13511.39516
549.353	13651.09033
549.559	13900.07407
549.764	13786.72124
549.97	13962.81925
550.175	13681.4567
550.381	14250.20346
550.586	14100.44545
550.792	14331.14932
550.997	14246.15609
551.203	14223.89542
551.408	14416.13953
551.614	14286.62945
551.819	14365.55046
552.025	14444.46899
552.23	14349.36175
552.435	14296.74768
552.641	14567.90133
552.846	14646.81471
553.052	14130.80273
553.257	14594.20598
553.462	14747.98346
553.668	14401.97469
553.873	14715.6097
554.078	14788.45036
554.283	14401.97469
554.489	14812.73035
554.694	14369.59762
554.899	14770.24029
555.105	14950.31536
555.31	14972.57154
555.515	14952.33865
555.72	15025.17691
555.925	14804.63703
556.131	15290.2257
556.336	14853.1968
556.541	15253.80674
556.746	15120.27082
556.951	14889.6164
557.156	14745.9601
557.361	15037.31658
557.567	15189.06203
557.772	14970.54826
557.977	14701.44612
558.182	15019.10707
558.387	15172.87586
558.592	15124.31737
558.797	15093.96829
559.002	14727.74989
559.207	15091.94501
559.412	15296.29554
559.617	15146.57335
559.822	15160.73624
560.027	15126.34064
560.232	15276.06276
560.437	15093.96829
560.642	15464.22883
560.847	15411.62292
561.051	15322.59818
561.256	15189.06203
561.461	15535.04507
561.666	15397.45984
561.871	15251.78346
562.076	15439.94914
562.281	15407.57632
562.485	15241.66709
562.69	15494.57856
562.895	15573.48851
563.1	15814.27268
563.305	15456.13559
563.509	15541.11507
563.714	15543.13841
563.919	15593.722
564.123	15322.59818
564.328	15715.12465
564.533	15802.13197
564.737	15615.97892
564.942	15569.44182
565.147	15763.68664
565.351	15848.67159
565.556	15709.05444
565.761	15692.86726
565.965	15747.49925
566.17	15446.01905
566.374	15773.80379
566.579	15822.36651
566.784	15915.44692
566.988	15838.55423
567.193	16046.97825
567.397	15824.38997
567.602	16164.34991
567.806	15668.5866
568.011	15970.08231
568.215	16204.82415
568.42	16245.29907
568.624	16235.18028
568.828	15957.94103
569.033	15998.41216
569.237	16358.63266
569.442	16055.07268
569.646	16059.11991
569.85	16208.87161
570.055	16386.96698
570.259	16014.60076
570.463	16308.0366
570.668	16306.01278
570.872	16174.46841
571.076	16360.65653
571.281	16684.50179
571.485	16417.3256
571.689	16678.42918
571.893	16862.64142
572.098	16297.91752
572.302	16372.79978
572.506	16259.46546
572.71	16303.98896
572.914	16714.86518
573.119	16178.51582
573.323	16559.00524
573.527	16439.58888
573.731	16807.98293
573.935	16745.2291
574.139	16937.54681
574.343	16269.58436
574.547	17038.77603
574.751	16678.42918
574.955	16935.52229
575.159	16971.964
575.364	16876.81244
575.568	16769.52063
575.772	17158.23529
575.976	16747.25338
576.18	16755.35053
576.383	17158.23529
576.587	16921.35075
576.791	16668.3082
576.995	17129.88814
577.199	16814.056
577.403	16866.69027
577.607	16814.056
577.811	16801.90987
578.015	16589.36652
578.219	17095.46735
578.422	16923.37525
578.626	17137.98727
578.83	17008.40656
579.034	17142.03685
579.238	17117.73953
579.442	17395.15881
579.645	17184.55814
579.849	17350.60597
580.053	17378.95761
580.257	17267.57957
580.46	17144.06164
580.664	17380.98275
580.868	17192.65758
581.071	17423.5114
581.275	17425.53661
581.479	17522.75027
581.682	17293.90447
581.886	17447.8141
582.09	17378.95761
582.293	17974.48797
582.497	17494.39553
582.7	17686.81507
582.904	17769.86848
583.107	17794.17787
583.311	17688.8407
583.515	17690.86633
583.718	17662.50782
583.922	17761.76546
584.125	17571.35984
584.329	17480.2184
584.532	17877.23866
584.735	17848.87579
584.939	17605.79275
585.142	17806.33275
585.346	17591.61438
585.549	17964.35746
585.753	17684.78945
585.956	17670.61019
586.159	17690.86633
586.363	18177.11704
586.566	18047.43029
586.769	17938.01853
586.973	17897.49827
587.176	18160.90538
587.379	17968.40965
587.582	18252.09901
587.786	18085.9295
587.989	18513.56275
588.192	18296.68529
588.395	18523.69828
588.599	18264.25873
588.802	18353.43409
589.005	17944.09669
589.208	18045.40405
589.411	18438.56282
589.615	18300.73868
589.818	18154.82607
590.021	18503.42732
590.224	18284.52522
590.427	18775.09049
590.63	18483.15674
590.833	18578.4318
591.036	18436.53587
591.239	18807.5326
591.442	18663.57846
591.645	18801.44963
591.848	18817.67097
592.051	18931.2275
592.254	18217.64721
592.457	18714.26427
592.66	18225.75342
592.863	18805.50494
593.066	18752.78713
593.269	19154.32179
593.472	19099.55773
593.675	19140.12342
593.878	18572.35016
594.081	19111.72727
594.284	19012.34703
594.486	19020.45933
594.689	19036.68414
594.892	19042.76851
595.095	18890.67016
595.298	18921.08802
595.5	18854.16992
595.703	19239.51625
595.906	19192.86125
596.109	19006.26284
596.311	19239.51625
596.514	19093.47302
596.717	19257.77315
596.92	19328.77537
597.122	19069.13454
597.325	19198.94656
597.528	19659.50974
597.73	19915.24551
597.933	19320.66057
598.136	19584.42536
598.338	19371.37912
598.541	19576.30847
598.743	19472.82399
598.946	19430.21589
599.148	19499.20136
599.351	19742.71804
599.554	19744.7476
599.756	19653.4216
599.959	19148.23675
600.161	19673.71553
600.363	19397.75379
600.566	19535.72503
600.768	19726.48172
600.971	19927.42507
601.173	19501.23042
601.376	19282.1162
601.578	19271.97319
601.78	19493.11421
601.983	19397.75379
602.185	19785.33965
602.388	19539.7833
602.59	19584.42536
602.792	19420.07137
602.995	19495.14326
603.197	19399.78264
603.399	19809.69569
603.601	19657.48035
603.804	19507.31762
604.006	19298.34523
604.208	19635.15742
604.41	19428.18697
604.613	19594.57156
604.815	19681.83322
605.017	19834.05233
605.219	19505.28855
605.421	19687.92154
605.623	19856.37979
605.826	20152.77418
606.028	19976.14481
606.23	19909.15579
606.432	19748.80673
606.634	20292.88218
606.836	19921.33527
607.038	19915.24551
607.24	19957.87462
607.442	20236.02434
607.644	20146.68298
607.846	20177.13935
608.048	20091.8639
608.25	20097.95476
608.452	20091.8639
608.654	19923.3652
608.856	19793.45826
609.058	19685.89209
609.26	19921.33527
609.462	19558.04571
609.664	19888.85699
609.866	19716.33416
610.067	19974.11477
610.269	20091.8639
610.471	19657.48035
610.673	20095.92447
610.875	20183.23074
611.077	20030.95741
611.278	20132.47033
611.48	20156.835
611.682	19783.31001
611.884	20262.42221
612.085	20051.25916
612.287	20467.53753
612.489	20035.01773
612.69	20057.34976
612.892	20022.83683
613.094	20357.86659
613.295	19925.39513
613.497	19982.23495
613.699	19878.70775
613.9	20028.92726
614.102	19896.97646
614.304	19925.39513
614.505	19864.49899
614.707	20357.86659
614.908	19984.265
615.11	19870.58843
615.311	20061.41018
615.513	20451.28921
615.714	20611.75307
615.916	20030.95741
616.117	20010.65609
616.319	19963.96465
616.52	20315.22008
616.722	20514.25293
616.923	20437.07215
617.124	20089.83363
617.326	19905.096
617.527	19882.76743
617.729	20205.56615
617.93	20266.48349
618.131	20481.75502
618.333	20260.39158
618.534	20252.2691
618.735	20095.92447
618.937	19799.54727
619.138	20199.47462
619.339	20453.32023
619.54	20451.28921
619.742	20294.91287
619.943	20211.65771
620.144	20093.89418
620.345	20307.09715
620.546	20345.68168
620.748	20457.3823
620.949	20225.87151
621.15	20451.28921
621.351	20404.57679
621.552	20268.51413
621.753	20341.62008
621.954	20605.65903
622.155	20219.77985
622.356	20656.44385
622.558	20166.98712
622.759	20260.39158
622.96	19992.38526
623.161	20199.47462
623.362	20292.88218
623.563	20203.53563
623.764	20114.19723
623.965	20317.25083
624.166	20788.49655
624.366	20341.62008
624.567	20447.22717
624.768	20567.06431
624.969	19976.14481
625.17	20298.97428
625.371	20280.69808
625.572	20502.06609
625.773	20144.65259
625.973	20749.89471
626.174	20524.40875
626.375	20548.78313
626.576	20489.8794
626.777	20512.22178
626.977	20298.97428
627.178	20447.22717
627.379	20112.16691
627.58	20215.71877
627.78	20187.29168
627.981	20465.50647
628.182	20455.35126
628.382	20018.77657
628.583	20321.31233
628.784	20412.70053
628.984	19941.63474
629.185	20522.37757
629.386	20152.77418
629.586	20526.43992
629.787	20502.06609
629.987	20357.86659
630.188	20386.29862
630.388	20469.56858
630.589	20039.07806
630.79	20461.44438
630.99	20343.65088
631.191	20331.46615
631.391	20333.49693
631.591	20311.15861
631.792	20022.83683
631.992	20699.10511
632.193	20498.00384
632.393	20396.45312
632.594	20477.69286
632.794	20520.34641
632.994	20662.5382
633.195	20916.50279
633.395	20695.04205
633.595	20804.7504
633.796	20788.49655
633.996	20800.68691
634.196	20798.65517
634.397	21203.05203
634.597	20983.56021
634.797	20861.64096
634.997	20534.56467
635.198	20755.98964
635.398	20621.90989
635.598	20904.31101
635.798	20435.04116
635.998	20611.75307
636.199	20798.65517
636.399	20715.3575
636.599	20784.43312
636.799	20451.28921
636.999	20160.89584
637.199	20640.19242
637.399	20370.05164
637.599	20260.39158
637.799	20154.80459
637.999	20569.09558
638.199	20248.20789
638.399	20699.10511
638.599	20408.63865
638.799	20599.56503
638.999	20351.77412
639.199	20628.00403
639.399	20668.63259
639.599	20601.59636
639.799	20449.25819
639.999	20841.32253
640.199	20599.56503
640.399	20924.63072
640.599	20447.22717
640.799	21379.89929
640.998	20778.33802
641.198	20981.5281
641.398	21046.55761
641.598	21253.86708
641.798	21357.53761
641.997	21241.67124
642.197	21257.9324
642.397	21229.47554
642.597	20965.27138
642.796	21243.70387
642.996	21014.04233
643.196	21129.8828
643.395	20733.64176
643.595	21144.10974
643.795	20881.95981
643.994	21170.53172
644.194	21150.20706
644.394	21286.39004
644.593	21005.91368
644.793	21160.36934
644.992	20892.11938
645.192	21253.86708
645.392	21007.94583
645.591	21367.70195
645.791	20963.2393
645.99	20847.41802
646.19	20999.81723
646.389	20920.56675
646.589	20920.56675
646.788	21138.01246
646.987	21014.04233
647.187	21233.54076
647.386	20818.97273
647.586	21251.83443
647.785	21296.55368
647.984	21495.78121
648.184	21274.19381
648.383	21444.95421
648.582	21095.3325
648.782	21325.0124
648.981	21796.7275
649.18	21316.88126
649.38	21292.48821
649.579	21453.08636
649.778	21444.95421
649.977	21656.41077
650.177	21587.27604
650.376	21270.12843
650.575	21233.54076
650.774	21442.92118
650.973	21318.91403
651.173	21316.88126
651.372	21233.54076
651.571	21347.37337
651.77	21172.56421
651.969	21888.24835
652.168	21245.7365
652.367	21741.81875
652.566	21609.64267
652.765	21603.54263
652.964	21278.25921
653.163	21432.7561
653.362	21640.14337
653.561	21351.43906
653.76	21446.98724
653.959	21528.31179
654.158	21469.35086
654.357	21284.35733
654.556	20837.25889
654.755	21571.00971
654.954	21135.98004
655.153	20949.01492
655.352	21062.81565
655.551	21257.9324
655.749	21125.818
655.948	21304.68466
656.147	21042.49315
656.346	21320.94682
656.545	21203.05203
656.743	21040.46092
656.942	21068.91248
657.141	21794.69379
657.34	21603.54263
657.538	21768.25594
657.737	21682.84584
657.936	21908.58738
658.135	21300.61916
658.333	21680.81235
658.532	21400.22852
658.731	21318.91403
658.929	21463.25164
659.128	21442.92118
659.326	21363.63621
659.525	21636.07656
659.724	21491.71496
659.922	21300.61916
660.121	21583.20944
660.319	21817.06479
660.518	21640.14337
660.716	21495.78121
660.915	21225.41034
661.113	21373.80061
661.312	21255.89974
661.51	21812.9973
661.709	21556.77688
661.907	21461.21858
662.105	21099.39718
662.304	21878.07898
662.502	21703.18095
662.701	22022.49296
662.899	21444.95421
663.097	21798.76121
663.296	21209.1497
663.494	21292.48821
663.692	21164.43428
663.891	21367.70195
664.089	21581.17614
664.287	21747.91958
664.485	21322.97961
664.684	21548.64391
664.882	21111.59132
665.08	21459.18552
665.278	21272.16112
665.476	21465.28471
665.675	21442.92118
665.873	21762.15499
666.071	21148.17462
666.269	20847.41802
666.467	21290.45548
666.665	21770.2896
666.863	21481.5494
667.061	21449.02028
667.259	21229.47554
667.457	21493.74808
667.655	21650.31047
667.853	21741.81875
668.051	21487.64872
668.249	21347.37337
668.447	21312.81571
668.645	21668.61149
668.843	21290.45548
669.041	21587.27604
669.239	21178.6617
669.437	21007.94583
669.635	21062.81565
669.833	21357.53761
670.031	21022.17105
670.229	21331.1108
670.426	21398.19558
670.624	21398.19558
670.822	21489.68184
671.02	21660.47766
671.218	21361.60334
671.415	21446.98724
671.613	21007.94583
671.811	21085.17087
672.009	21052.65435
672.206	21434.78911
672.404	21381.9322
672.602	21284.35733
672.799	21300.61916
672.997	21495.78121
673.195	21095.3325
673.392	21349.40621
673.59	21022.17105
673.788	21087.20319
673.985	21009.978
674.183	21410.39328
674.38	21048.58985
674.578	20837.25889
674.775	21241.67124
674.973	21243.70387
675.17	21325.0124
675.368	21264.0304
675.565	21381.9322
675.763	21491.71496
675.96	20886.02362
676.158	21249.80178
676.355	20920.56675
676.553	21280.29191
676.75	20753.95799
676.947	21028.26764
677.145	21040.46092
677.342	21412.42624
677.539	21091.26784
677.737	20981.5281
677.934	20760.05294
678.131	21072.97705
678.329	20977.46389
678.526	21162.40181
678.723	20829.13167
678.92	21064.84792
679.118	20372.0825
679.315	20670.66407
679.512	20485.8172
679.709	20784.43312
679.906	20881.95981
680.104	21115.65607
680.301	20865.7047
680.498	20386.29862
680.695	20491.9105
680.892	20857.57724
681.089	20575.18939
681.286	20934.79073
681.483	20674.72702
681.68	20660.50675
681.877	20762.0846
682.075	20483.78611
682.272	20301.00499
682.469	20853.51354
682.665	20652.38097
682.862	20965.27138
683.059	20443.16515
683.256	20650.34953
683.453	20648.3181
683.65	20798.65517
683.847	20498.00384
684.044	20351.77412
684.241	20264.45285
684.438	20548.78313
684.635	20217.74931
684.831	20660.50675
685.028	20311.15861
685.225	21083.13856
685.422	20420.82434
685.619	20587.37713
685.815	20274.60609
686.012	20345.68168
686.209	20250.23849
686.405	20656.44385
686.602	20437.07215
686.799	20636.12961
686.996	20684.88449
687.192	20254.29972
687.389	20227.90207
687.586	20004.56578
687.782	19949.75465
687.979	19797.5176
688.175	20045.16859
688.372	20146.68298
688.568	20217.74931
688.765	20219.77985
688.962	20104.04566
689.158	20130.43997
689.355	20118.25789
689.551	19811.72539
689.748	19909.15579
689.944	20150.74378
690.14	19888.85699
690.337	19953.81463
690.533	19809.69569
690.73	19957.87462
690.926	19775.19148
691.123	19679.80379
691.319	20016.74644
691.515	20053.28935
691.712	19901.03622
691.908	19694.00988
692.104	19951.78464
692.301	19955.84462
692.497	20014.71632
692.693	19750.8363
692.889	19521.52122
693.086	20140.59182
693.282	19736.62939
693.478	19667.62731
693.674	19994.41534
693.87	19998.4755
694.067	19882.76743
694.263	20112.16691
694.459	19781.28037
694.655	19811.72539
694.851	19974.11477
695.047	19683.86266
695.243	19685.89209
695.439	19523.55032
695.635	19401.8115
695.831	19641.24544
696.027	19529.63766
696.224	19866.5288
696.42	19310.51717
696.615	19866.5288
696.811	19389.63844
697.007	19519.49212
697.203	19330.80408
697.399	19405.86922
697.595	19097.52949
697.791	19219.2312
697.987	18902.83719
698.183	19269.9446
698.379	18915.00437
698.575	19200.97501
698.77	18933.25541
698.966	18975.84244
699.162	18880.53107
699.358	18990.03851
699.554	19040.74039
699.749	19267.91601
699.945	18809.56026
700.141	19223.28818
700.337	19056.96552
700.532	19409.92695
700.728	19227.34517
700.924	19042.76851
701.119	19020.45933
701.315	19024.51551
701.511	18996.1226
701.706	19389.63844
701.902	19249.65893
702.097	18990.03851
702.293	19034.65603
702.489	19154.32179
702.684	18878.50327
702.88	19069.13454
703.075	19050.88106
703.271	18781.17331
703.466	18915.00437
703.662	19140.12342
703.857	18726.42923
704.053	18908.92076
704.248	18464.91355
704.443	18904.86505
704.639	18696.01709
704.834	19144.18007
705.03	18965.70251
705.225	19002.20673
705.42	18720.34673
705.616	18602.75871
705.811	18888.64233
706.006	18878.50327
706.202	18614.92238
706.397	18839.97573
706.592	19046.82478
706.787	18572.35016
706.983	18554.10544
707.178	18886.61451
707.373	18775.09049
707.568	18819.69865
707.763	18773.06289
707.959	18637.2228
708.154	18367.62175
708.349	18316.95238
708.544	18525.72539
708.739	18651.41423
708.934	18582.48624
709.129	18391.94388
709.324	18136.58833
709.519	18398.0245
709.714	18079.85059
709.909	18629.1135
710.104	18248.0458
710.299	18452.75159
710.494	18375.72906
710.689	18454.77858
710.884	18379.78274
711.079	19117.81209
711.274	18756.84225
711.469	18878.50327
711.664	18347.35372
711.859	19097.52949
712.054	18645.33216
712.249	18144.69395
712.443	18057.56154
712.638	18333.16632
712.833	18284.52522
713.028	18779.1457
713.223	18112.27181
713.417	18501.40024
713.612	18049.45653
713.807	18256.15224
714.002	17929.91437
714.196	18211.56759
714.391	18023.11567
714.586	17978.5402
714.78	17798.22948
714.975	17905.60221
715.17	17826.59115
715.364	18329.11282
715.559	18132.53554
715.754	17769.86848
715.948	17654.40551
716.143	17895.47229
716.337	17678.7126
716.532	18065.66659
716.726	17628.07336
716.921	18089.98212
717.115	17838.74635
717.31	17980.56632
717.504	17824.56529
717.699	17950.17488
717.893	17482.24369
718.088	17786.07469
718.282	17662.50782
718.476	17846.84989
718.671	17743.53386
718.865	18019.06328
719.059	17769.86848
719.254	17832.66874
719.448	17644.27769
719.642	17617.94576
719.837	17364.78171
720.031	17711.12281
720.225	17735.43102
720.419	17840.77223
720.614	17395.15881
720.808	17743.53386
721.002	17297.9545
721.196	17492.37022
721.39	17630.09889
721.585	17470.09197
721.779	17536.92787
721.973	16931.47327
722.167	16971.964
722.361	17233.15545
722.555	17395.15881
722.749	17532.87711
722.943	17131.91292
723.137	17196.70731
723.331	17034.72673
723.525	17346.55578
723.719	16844.42172
723.913	17259.4797
724.107	16951.7185
724.301	17204.80682
724.495	16955.76758
724.689	17273.6545
724.883	17251.37988
725.077	17593.63985
725.271	17261.50466
725.465	17443.76362
725.659	17208.85659
725.853	17297.9545
726.046	17253.40483
726.24	17166.33457
726.434	16777.61788
726.628	16888.95913
726.822	16644.01808
727.015	16830.25098
727.209	16895.03251
727.403	16664.25982
727.596	16779.6422
727.79	16905.15486
727.984	16844.42172
728.177	17059.02268
728.371	16884.91022
728.565	17006.38195
728.758	17121.78906
728.952	16982.08684
729.146	16644.01808
729.339	17042.82533
729.533	16971.964
729.726	16988.16058
729.92	17166.33457
730.113	17366.80683
730.307	17223.03087
730.5	17046.87465
730.694	16583.29423
730.887	16698.67131
731.081	16905.15486
731.274	17253.40483
731.468	16702.71976
731.661	16941.59585
731.854	16795.83684
732.048	16925.39975
732.241	16617.70416
732.435	17095.46735
732.628	17119.76429
732.821	17417.43579
733.014	16862.64142
733.208	16765.47202
733.401	16692.59864
733.594	16376.84754
733.788	16662.23564
733.981	17026.62816
734.174	16939.57133
734.367	16836.32414
734.56	16998.28354
734.754	16512.45223
734.947	16830.25098
735.14	16747.25338
735.333	16376.84754
735.526	16494.23614
735.719	16382.9192
735.912	16490.18814
736.105	16593.41473
736.298	16803.93422
736.491	16779.6422
736.684	16536.74062
736.877	16437.56493
737.07	16635.92145
737.263	16686.526
737.456	16581.27013
737.649	16688.55021
737.842	16571.1497
738.035	16824.17785
738.228	16629.849
738.421	16870.73913
738.614	17004.35734
738.807	16532.69253
739	16350.53721
739.192	16229.10902
739.385	16245.29907
739.578	16044.95465
739.771	16344.46565
739.964	16338.3941
740.156	16609.60765
740.349	16303.98896
740.542	16419.34953
740.735	16301.96515
740.927	16585.31832
741.12	16473.99624
741.313	16303.98896
741.505	16457.80447
741.698	16285.7747
741.891	16053.04907
742.083	15872.95337
742.276	15844.62464
742.468	16059.11991
742.661	16053.04907
742.854	16152.20777
743.046	16330.29872
743.239	16061.14352
743.431	15986.27076
743.624	15806.17887
743.816	15692.86726
744.009	15565.39513
744.201	15658.46969
744.393	15864.85943
744.586	15988.29432
744.778	16008.53002
744.971	15994.36502
745.163	15949.84687
745.355	15917.47043
745.548	15725.24168
745.74	15903.30585
745.932	16105.66343
746.125	15571.46516
746.317	15585.62859
746.509	15747.49925
746.702	15970.08231
746.894	15844.62464
747.086	16012.57718
747.278	15881.04734
747.471	15840.5777
747.663	16164.34991
747.855	16038.88385
748.047	15707.03104
748.239	16022.6951
748.431	15905.32936
748.623	16127.92366
748.815	15705.00764
749.008	15731.31192
749.2	15638.23595
749.392	15508.74181
749.584	15648.35281
749.776	15636.21258
749.968	15628.1191
750.16	15618.00228
750.352	15530.99841
750.544	15375.20362
750.736	15516.83511
750.928	15824.38997
751.12	15709.05444
751.311	15678.70352
751.503	15887.11783
751.695	15526.95175
751.887	15603.83877
752.079	15810.22577
752.271	15437.92583
752.463	15826.41344
752.654	15615.97892
752.846	15826.41344
753.038	15223.45764
753.23	15393.41325
753.421	15435.90253
753.613	15425.78601
753.805	15450.06567
753.997	15502.67184
754.188	15656.44631
754.38	15460.18221
754.572	15361.04059
754.763	15427.80932
754.955	15484.46197
755.146	15468.27545
755.338	15257.85329
755.53	15492.55524
755.721	15395.43654
755.913	15520.88176
756.104	15201.20165
756.296	15047.43297
756.487	15160.73624
756.679	15567.41847
756.87	15075.75883
757.062	15079.80537
757.253	15023.15363
757.445	14998.87425
757.636	14891.6397
757.827	14992.8044
758.019	15047.43297
758.21	14974.59483
758.401	15142.5268
758.593	15004.9441
758.784	14622.53385
758.975	14602.29968
759.167	14679.18896
759.358	14707.51623
759.549	14652.8849
759.74	14588.13569
759.932	14723.70316
760.123	14944.24548
760.314	14968.52497
760.505	14300.79496
760.696	14335.19654
760.888	14515.29143
761.079	14406.0218
761.27	14620.51043
761.461	14377.69193
761.652	14434.35136
761.843	14193.53958
762.034	14537.54957
762.225	14128.77892
762.416	14626.58067
762.607	14064.01605
762.798	14711.56297
762.989	14254.25082
763.18	14501.12707
763.371	14173.30211
763.562	14153.06442
763.753	14126.75512
763.944	14064.01605
764.135	14072.11153
764.326	14482.91567
764.517	14173.30211
764.708	14375.66836
764.899	14043.77717
765.089	14114.61224
765.28	14118.65987
765.471	13802.91506
765.662	13813.03609
765.853	14009.37053
766.043	13640.96805
766.234	13827.20542
766.425	13679.4323
766.615	13485.07388
766.806	14023.53806
766.997	14219.848
767.187	13989.13101
767.378	14223.89542
767.569	13843.39877
767.759	14074.1354
767.95	13800.89084
768.141	13786.72124
768.331	13800.89084
768.522	13444.57835
768.712	13278.53019
768.903	13466.85108
769.093	13233.97591
769.284	13252.20292
769.474	13450.65278
769.665	13207.64739
769.855	12994.96523
770.046	13296.75634
770.236	13391.93187
770.426	13319.03228
770.617	13393.95679
770.807	13122.58079
770.998	13110.42775
771.188	12911.90316
771.378	12911.90316
771.569	13268.4044
771.759	13428.37972
771.949	13410.15595
772.139	13134.73366
772.33	12863.27738
772.52	12893.66886
772.71	13055.73695
772.9	13094.22343
773.09	13274.47989
773.281	13114.47878
773.471	13015.22297
773.661	12869.35577
773.851	13128.65724
774.041	12938.24086
774.231	12778.17472
774.421	12778.17472
774.611	12545.10326
774.802	12563.34653
774.992	12703.19508
775.182	12455.90648
775.372	12804.51706
775.562	12620.10015
775.752	12950.39642
775.942	12575.50843
776.131	12711.30137
776.321	12366.69697
776.511	12516.72382
776.701	12401.16582
776.891	12088.84388
777.081	11977.25739
777.271	12322.08728
777.461	12190.26597
777.651	12212.57634
777.84	12601.85844
778.03	12127.38649
778.22	12305.86474
778.41	12153.75618
778.599	11784.4594
778.789	12090.8725
778.979	12157.81294
779.169	12259.22243
779.358	12316.00388
779.548	12384.94543
779.738	12247.05425
779.927	12285.58594
780.117	12224.74525
780.307	12084.7866
780.496	12078.70062
780.686	12338.30937
780.875	12115.21543
781.065	12186.20945
781.254	12198.37893
781.444	11954.93721
781.633	11989.43162
781.823	12289.64176
782.012	12107.10125
782.202	12293.69755
782.391	12013.77922
782.581	11879.85304
782.77	11483.94361
782.96	11575.33784
783.149	11394.56167
783.338	11800.69794
783.528	11839.26228
783.717	11573.30706
783.906	11630.16533
784.096	11461.59988
784.285	11705.28857
784.474	11524.56562
784.663	11522.53461
784.853	11699.19795
785.042	11321.41685
785.231	11581.43011
785.42	11252.32365
785.61	11575.33784
785.799	11213.70758
785.988	11433.16072
786.177	11195.41445
786.366	11323.44883
786.555	11099.86975
786.744	11217.77261
786.933	11231.99987
787.122	11510.34835
787.312	10713.37534
787.501	11347.83175
787.69	10847.67825
787.879	11205.5774
788.068	10870.0571
788.257	11030.7375
788.445	10676.73825
788.634	11370.1815
788.823	11063.27189
789.012	11323.44883
789.201	11213.70758
789.39	11205.5774
789.579	11128.33233
789.768	11012.43566
789.957	10851.74723
790.145	10900.57147
790.334	10745.93836
790.523	10664.52501
790.712	10829.36723
790.9	10922.94704
791.089	10886.33175
791.278	11071.40505
791.467	10731.69242
791.655	10806.98582
791.844	10629.91845
792.033	10798.84677
792.221	10778.49833
792.41	11120.20038
792.599	10621.77522
792.787	10786.63785
792.976	10896.50304
793.164	10670.63169
793.353	10629.91845
793.541	10684.88016
793.73	10880.22884
793.918	10916.84475
794.107	10442.57331
794.295	10786.63785
794.484	10613.63178
794.672	10493.49293
794.861	10297.9172
795.049	10693.02188
795.238	10322.3708
795.426	10442.57331
795.614	10261.23318
795.803	10128.72634
795.991	10171.5426
796.179	10253.08058
796.368	10132.80435
796.556	10142.99911
796.744	10036.95641
796.932	10140.96019
797.121	10004.32018
797.309	10108.33549
797.497	9945.15761
797.685	10344.78491
797.874	10228.62148
798.062	10257.15691
798.25	10142.99911
798.438	10326.44621
798.626	9994.1206
798.814	9892.10491
799.002	10085.90393
799.19	9971.68027
799.378	9959.43935
799.566	9992.08064
799.755	9800.25933
799.943	9924.7539
800.131	10038.99605
800.318	10020.63875
800.506	9743.09566
800.694	10002.28029
800.882	9575.61862
801.07	9755.34602
801.258	9837.00118
801.446	9820.67207
801.634	9542.92794
801.822	9881.90133
802.01	9763.51262
802.197	9724.71909
802.385	9663.45492
802.573	9781.88659
802.761	9669.58196
802.949	9877.8198
803.136	9602.17683
803.324	9706.34129
803.512	9716.55134
803.699	10028.7977
803.887	9912.51097
804.075	9888.02352
804.262	10130.76535
804.45	9888.02352
804.638	9665.49728
804.825	9920.67298
805.013	9877.8198
805.201	9869.65655
805.388	9902.30812
805.576	10024.71825
805.763	9792.09382
805.951	9951.27844
806.138	9885.98281
806.326	9824.75444
806.513	9873.7382
806.701	9822.71326
806.888	9649.15795
807.075	9904.34872
807.263	9706.34129
807.45	9830.87788
807.638	9583.79066
807.825	9871.69738
808.012	9677.75113
808.2	9953.31869
808.387	9894.14558
808.574	9832.91899
808.761	9863.53396
808.949	9741.05388
809.136	9967.60002
809.323	10118.53109
809.51	9998.20047
809.698	10049.19406
809.885	9771.67898
810.072	9967.60002
810.259	10075.7072
810.446	10010.43975
810.633	9871.69738
810.82	10122.60923
811.008	10214.35277
811.195	10069.589
811.382	9747.17917
811.569	10157.2712
811.756	9800.25933
811.943	9881.90133
812.13	9630.77502
812.317	9718.5933
812.504	9657.32774
812.691	9892.10491
812.878	9775.76207
813.064	9959.43935
813.251	9904.34872
813.438	9992.08064
813.625	9767.59583
813.812	9732.88661
813.999	9706.34129
814.186	9963.51971
814.372	9536.79799
814.559	10036.95641
814.746	9869.65655
814.933	9898.22688
815.12	9820.67207
815.306	9812.50716
815.493	9403.94695
815.68	9685.92006
815.866	9495.92797
816.053	9665.49728
816.24	9430.52261
816.426	9745.13742
816.613	9663.45492
816.799	9881.90133
816.986	9722.67718
817.173	10041.03568
817.359	9508.18965
817.546	9718.5933
817.732	9440.74329
817.919	9640.98791
818.105	9583.79066
818.292	9736.97027
818.478	9726.761
818.665	9806.38331
818.851	9671.62428
819.037	9777.80359
819.224	9571.53251
819.41	9714.50936
819.597	9473.44674
819.783	9371.23467
819.969	9397.81372
820.156	9258.75402
820.342	9324.2034
820.528	9571.53251
820.714	9348.74254
820.901	9587.87659
821.087	9150.31564
821.273	9365.10065
821.459	9403.94695
821.646	9516.36378
821.832	9342.60798
822.018	9311.93294
822.204	9185.10295
822.39	9240.3433
822.576	9260.79957
822.762	9297.61665
822.948	9193.28748
823.134	9301.7071
823.32	9007.02143
823.507	9160.54771
823.693	8888.22697
823.879	9072.53788
824.065	8871.83683
824.25	9217.83946
824.436	9019.30713
824.622	9246.48036
824.808	9289.43554
824.994	9573.57557
825.18	9158.50133
825.366	9381.45771
825.552	9135.99003
825.738	9283.29954
825.923	8990.63952
826.109	9113.47664
826.295	8718.12303
826.481	8769.37234
826.667	8921.00381
826.852	9002.92606
827.038	8732.47399
827.224	8912.81003
827.409	8716.07282
827.595	8884.12954
827.781	8683.26695
827.966	9090.96118
828.152	8849.29852
828.338	8996.78287
828.523	8590.97496
828.709	8818.56094
828.894	8718.12303
829.08	9101.19574
829.266	8748.87399
829.451	8830.85646
829.637	8502.74935
829.822	8584.82082
830.008	8465.80729
830.193	8703.77117
830.378	8621.74315
830.564	8798.06696
830.749	8757.07355
830.935	8757.07355
831.12	8564.30578
831.305	8683.26695
831.491	8580.71796
831.676	8525.32202
831.861	8570.46049
832.047	8418.59452
832.232	8266.62314
832.417	8609.43638
832.602	8239.91441
832.788	8363.15784
832.973	8457.5971
833.158	8551.99586
833.343	8432.9647
833.528	8447.33394
833.714	8225.5314
833.899	8408.32953
834.084	7779.16836
834.269	8145.37971
834.454	8272.78622
834.639	8188.54207
834.824	8141.26855
835.009	8644.30382
835.194	8163.87895
835.379	8595.07763
835.564	8190.5972
835.749	8365.2113
835.934	8235.80508
836.119	8052.85919
836.304	7692.66339
836.489	7756.51588
836.674	7496.85945
836.859	7845.05214
837.044	7779.16836
837.228	8005.55514
837.413	7698.84355
837.598	7906.79887
837.783	7818.28943
837.968	8032.29353
838.152	7805.93622
838.337	8256.35095
838.522	7869.75306
838.707	8077.53532
838.891	7746.21846
839.076	7947.95305
839.261	7884.16056
839.445	7678.24228
839.63	7569.02017
839.815	7797.70033
839.999	7861.51975
840.184	8239.91441
840.368	7853.28611
840.553	7956.1829
840.737	7569.02017
840.922	7754.45644
841.106	7682.36271
841.291	7649.39696
841.475	7470.05018
841.66	7845.05214
841.844	7474.17492
842.029	7655.57845
842.213	7663.82014
842.397	7531.91223
842.582	7048.86676
842.766	7465.92536
842.951	7123.26013
843.135	7523.66507
843.319	7290.53987
843.504	7170.7741
843.688	7247.18498
843.872	7228.60133
844.056	7195.55932
844.241	7342.14021
844.425	7036.46504
844.609	7271.96039
844.793	6796.53884
844.977	7086.06706
845.161	6703.38163
845.346	6939.29025
845.53	6740.65008
845.714	7021.99535
845.898	6755.14136
846.082	6914.47168
846.266	6771.70145
846.45	6833.78877
846.634	6591.53161
846.818	7028.19678
847.002	6649.53629
847.186	6997.1876
847.37	6864.82475
847.554	6802.74768
847.738	6452.66109
847.922	6815.16473
848.106	6837.9272
848.29	6798.60848
848.473	6767.56156
848.657	6614.32132
848.841	6831.71953
849.025	6796.53884
849.209	6512.78199
849.392	6717.8758
849.576	6705.45229
849.76	6889.64985
849.944	6475.46787
850.127	6448.5141
850.311	6444.36702
850.495	6510.70918
850.678	6626.75089
850.862	6450.58761
851.046	6527.29101
851.229	6566.66692
851.413	6340.6597
851.596	6589.45968
851.78	6690.95716
851.964	6502.41771
852.147	6396.66889
852.331	6570.81126
852.514	6346.88378
852.698	6614.32132
852.881	6091.52358
853.065	6635.03682
853.248	6361.40582
853.431	6552.16098
853.615	6153.83928
853.798	6249.34897
853.982	6228.59022
854.165	6230.6662
854.348	5948.1171
854.532	6052.04603
854.715	5904.44938
854.898	6066.59138
855.081	5798.35589
855.265	5916.92693
855.448	5702.61106
855.631	5962.6707
855.814	5891.97098
855.997	5904.44938
856.181	5985.5383
856.364	6079.0579
856.547	5831.64673
856.73	5950.19626
856.913	5579.73483
857.096	5860.77126
857.279	5610.98233
857.462	5902.36971
857.645	5748.4083
857.828	5713.02053
858.011	5613.06531
858.194	5696.3651
858.377	5858.69109
858.56	5846.20957
858.743	5702.61106
858.926	5925.24483
859.109	5602.65019
859.292	5633.8938
859.475	5550.56571
859.658	5704.693
859.841	5244.01168
860.023	5387.96756
860.206	5271.14232
860.389	5550.56571
860.572	5392.13853
860.755	5744.24539
860.937	5488.0449
861.12	5352.51053
861.303	5321.21928
861.486	5412.99197
861.668	5417.16238
861.851	5396.30941
862.034	5118.74224
862.216	5285.7495
862.399	5168.86008
862.581	5356.6823
862.764	4941.13424
862.947	5102.03332
863.129	4863.77056
863.312	4876.31815
863.494	4953.67675
863.677	5049.80838
863.859	4945.31517
864.042	5143.80284
864.224	5028.91436
864.406	5066.52194
864.589	4767.54508
864.771	4878.40933
864.954	4748.71273
865.136	4901.41086
865.318	4574.95062
865.501	4890.95597
865.683	4765.45268
865.865	5041.45105
866.048	4692.2047
866.23	4819.84751
866.412	4698.48418
866.594	4679.64512
866.777	4583.32823
866.959	5001.74867
867.141	4742.43487
867.323	4790.5599
867.505	4646.14897
867.687	4798.92824
867.869	4669.17819
868.052	4807.29622
868.234	4631.4926
868.416	4748.71273
868.598	4484.86882
868.78	4631.4926
868.962	4769.63745
869.144	4865.86188
869.326	4604.27071
869.508	4744.52751
869.69	4558.19432
869.872	4664.99126
870.054	4294.09684
870.236	4618.92912
870.417	4505.82173
870.599	4652.42994
870.781	4375.87832
870.963	4514.20227
871.145	4533.0572
871.327	4430.38097
871.508	4256.34049
871.69	4543.53139
871.872	4505.82173
872.054	4623.11704
872.235	4392.64994
872.417	4541.43659
872.599	4409.42016
872.78	4641.96155
872.962	4633.58643
873.144	4625.21096
873.325	4350.71829
873.507	4493.25025
873.689	4470.20048
873.87	4533.0572
874.052	4264.73139
874.233	4874.22694
874.415	4493.25025
874.596	4863.77056
874.778	4329.74922
874.959	4530.9623
875.141	4411.51634
875.322	4675.45842
875.503	4411.51634
875.685	4558.19432
875.866	4189.20103
876.048	4530.9623
876.229	4191.29946
876.41	4340.23403
876.592	4289.90203
876.773	4338.13711
876.954	4247.94925
877.136	4641.96155
877.317	4315.06958
877.498	4524.67745
877.679	4306.68074
877.86	4522.58246
878.042	4170.31414
878.223	4560.28893
878.404	4224.87158
878.585	4417.80474
878.766	4082.15282
878.947	4317.16674
879.128	4224.87158
879.309	4191.29946
879.49	4187.10257
879.672	4522.58246
879.853	4363.2987
880.034	4365.39536
880.215	4063.25632
880.396	4264.73139
880.576	3886.80887
880.757	4283.60966
880.938	4191.29946
881.119	4449.24383
881.3	4180.80706
881.481	4455.53105
881.662	4109.44479
881.843	4180.80706
882.023	4119.94076
882.204	4195.49627
882.385	4119.94076
882.566	4264.73139
882.747	4035.95842
882.927	4438.76468
883.108	4352.81508
883.289	4539.34178
883.469	4436.66879
883.65	4421.99691
883.831	4518.39241
884.011	4723.60008
884.192	4484.86882
884.373	4608.45894
884.553	4396.84262
884.734	4428.28499
884.914	4243.7535
885.095	4568.66717
885.275	4187.10257
885.456	4461.81808
885.636	4208.0862
885.817	4438.76468
885.997	4329.74922
886.178	4568.66717
886.358	4229.06771
886.538	4526.77242
886.719	4245.85139
886.899	4413.6125
887.08	4581.23386
887.26	4985.02938
887.44	4440.86055
887.621	4715.22847
887.801	4434.57287
887.981	4752.89785
888.161	4432.47693
888.342	4476.48704
888.522	4455.53105
888.702	4373.78177
888.882	4071.65498
889.062	4545.62616
889.242	4208.0862
889.423	4516.29735
889.603	4250.04709
889.783	4363.2987
889.963	4130.43621
890.143	4421.99691
890.323	4140.93114
890.503	4323.45808
890.683	4119.94076
890.863	4262.6337
891.043	4128.33717
891.223	4277.3171
891.403	4061.15661
891.583	4304.58348
891.763	4082.15282
891.943	4237.45972
892.122	3922.53004
892.302	4350.71829
892.482	4187.10257
892.662	4304.58348
892.842	4243.7535
893.022	4273.12195
893.201	4107.34553
893.381	4377.97485
893.561	4038.05838
893.741	4220.67536
893.92	3842.67474
894.1	4035.95842
894.28	4010.75726
894.459	4375.87832
894.639	4380.07136
894.819	4031.75843
894.998	3989.75404
895.178	4010.75726
895.357	3985.55315
895.537	4140.93114
895.716	4059.05687
895.896	4191.29946
896.075	3884.70744
896.255	4145.12896
896.434	4002.35622
896.614	4149.3267
896.793	3695.49825
896.973	4065.35602
897.152	3640.80858
897.331	3886.80887
897.511	3735.45558
897.69	3857.38709
897.87	3640.80858
898.049	3764.89336
898.228	3426.13508
898.407	3800.63409
898.587	3459.82191
898.766	3737.5584
898.945	3409.28995
899.124	3592.4186
899.304	3381.9142
899.483	3661.84459
899.662	3466.13768
899.841	3727.04409
900.02	3493.50413
900.199	3785.918
900.378	3276.59545
900.557	3638.70488
900.737	3346.11068
900.916	3573.48069
901.095	3293.44934
901.274	3514.55316
901.453	3244.99149
901.632	3520.86752
901.811	3169.12669
901.989	3424.0295
902.168	3293.44934
902.347	3409.28995
902.526	3122.75443
902.705	3219.7056
902.884	3013.11678
903.063	3325.04743
903.242	3080.59112
903.42	3126.97041
903.599	2732.51466
903.778	2899.21866
903.957	2857.02335
904.135	3194.41733
904.314	2935.08014
904.493	3126.97041
904.672	2899.21866
904.85	2892.88973
905.029	2679.74269
905.207	2774.72631
905.386	2574.17503
905.565	2791.60947
905.743	2774.72631
905.922	2692.4087
906.1	2441.11763
906.279	2519.26793
906.457	2358.72704
906.636	2707.18513
906.814	2464.35308
906.993	2409.43082
907.171	2439.00525
907.35	2523.49183
907.528	2248.84941
907.707	2350.27584
907.885	2208.6956
908.063	2223.48948
908.242	2062.84883
908.42	2157.97058
908.598	2143.17489
908.777	2109.35472
908.955	2045.93672
909.133	2286.88687
909.311	2045.93672
909.49	2210.80904
909.668	1984.62671
909.846	2124.15129
910.024	2088.21612
910.202	2166.42508
910.38	2096.67165
910.559	2367.17808
910.737	2138.94748
910.915	2439.00525
911.093	2208.6956
911.271	2185.44723
911.449	2109.35472
911.627	2350.27584
911.805	2198.12829
911.983	2365.06534
912.161	2075.53261
912.339	2358.72704
912.517	2257.30244
912.695	2496.03565
912.872	2377.74165
913.05	2413.65586
913.228	2176.99303
913.406	2333.37297
913.584	2257.30244
913.762	2515.04398
913.939	2257.30244
914.117	2396.75543
914.295	2164.31147
914.473	2301.67841
914.65	2196.0148
914.828	2436.89286
915.006	2244.62285
915.184	2415.76837
915.361	2130.49256
915.539	2506.59595
915.716	2100.89937
915.894	2337.59875
916.072	1993.08359
916.249	2181.22015
916.427	2037.48051
916.604	2160.08422
916.782	1961.36976
916.959	2255.1892
917.137	2024.79597
917.314	2147.40227
917.492	2003.65455
917.669	2132.6063
917.847	1881.02216
918.024	2088.21612
918.201	1800.66709
918.379	2005.76872
918.556	1838.73087
918.733	2073.41866
918.911	1963.48406
919.088	2098.78552
919.265	1895.82363
919.442	1961.36976
919.62	1836.61625
919.797	2098.78552
919.974	1906.39595
920.151	1919.08256
920.328	1627.25012
920.506	1754.14283
920.683	1572.26048
920.86	1817.5845
921.037	1644.16972
921.214	1889.48018
921.391	1741.45408
921.568	1775.29046
921.745	1720.30586
921.922	1885.25118
922.099	1603.98543
922.276	1811.2405
922.453	1726.65036
922.63	1809.12583
922.807	1568.03046
922.984	1597.64047
923.161	1580.7205
923.338	1819.69916
923.514	1542.65022
923.691	1625.13515
923.868	1419.97755
924.045	1587.0655
924.222	1386.13684
924.399	1546.88027
924.575	1432.66785
924.752	1546.88027
924.929	1360.75644
925.105	1462.27858
925.282	1341.72126
925.459	1293.07638
925.635	1367.10153
925.812	1529.96003
925.989	1309.99623
926.165	1491.88929
926.342	1405.17222
926.518	1356.52639
926.695	1138.69096
926.871	1318.4562
927.048	1295.19135
927.224	1301.53629
927.401	1280.38658
927.577	1411.51736
927.754	973.75696
927.93	1180.98655
928.107	1193.67552
928.283	1286.73147
928.459	1155.609
928.636	1123.8879
928.812	1142.92045
928.988	1246.54755
929.165	973.75696
929.341	1155.609
929.517	912.44504
929.693	1170.4125
929.87	882.84846
930.046	1147.14995
930.222	1005.47231
930.398	1106.97039
930.574	903.98872
930.751	1166.18291
930.927	997.01474
931.103	1032.96009
931.279	969.52836
931.455	1041.41807
931.631	789.84149
931.807	1001.24351
931.983	844.79808
932.159	1075.2509
932.335	844.79808
932.511	1016.04441
932.687	872.27863
932.863	895.53252
933.039	747.57161
933.215	810.9779
933.391	796.18231
933.566	834.22902
933.742	737.00477
933.918	865.93684
934.094	705.30587
934.27	658.81867
934.445	639.80281
934.621	688.40079
934.797	612.3372
934.973	639.80281
935.148	534.1778
935.324	527.84137
935.5	559.52479
935.675	498.27303
935.851	445.47962
936.027	432.81063
936.202	424.36495
936.378	405.3631
936.553	308.26376
936.729	346.25481
936.904	348.36559
937.08	358.91976
937.255	333.59049
937.431	371.58532
937.606	304.04289
937.782	392.69594
937.957	293.49103
938.133	304.04289
938.308	185.88917
938.483	282.93964
938.659	228.07995
938.834	253.3982
939.009	234.40925
939.185	206.98356
939.36	171.12431
939.535	228.07995
939.71	213.31227
939.886	230.1897
940.061	160.57861
940.236	173.23352
940.411	185.88917
940.586	200.65503
940.761	126.83588
940.937	202.76452
941.112	181.67054
941.287	139.48876
941.462	181.67054
941.637	137.37989
941.812	103.64094
941.987	147.92445
942.162	109.96657
942.337	120.50972
942.512	131.05342
942.687	74.12398
942.862	150.03342
943.037	147.92445
943.212	181.67054
943.386	152.14241
943.561	76.23219
943.736	169.01513
943.911	84.66525
944.086	147.92445
944.26	76.23219
944.435	145.81549
944.61	114.18377
944.785	122.61842
944.959	139.48876
945.134	164.79683
945.309	162.68771
945.483	118.40105
945.658	135.27105
945.833	166.90597
946.007	59.36716
946.182	90.99028
946.357	166.90597
946.531	122.61842
946.706	105.74946
946.88	118.40105
947.055	86.77357
947.229	88.88192
947.404	177.45199
947.578	133.16222
947.752	40.39575
947.927	135.27105
948.101	101.53244
948.276	185.88917
948.45	131.05342
948.624	206.98356
948.799	158.46953
948.973	122.61842
949.147	103.64094
949.321	103.64094
949.496	80.44868
949.67	99.42397
949.844	95.20708
950.018	126.83588
950.193	152.14241
950.367	122.61842
950.541	95.20708
950.715	147.92445
950.889	93.09867
951.063	80.44868
951.237	88.88192
951.411	160.57861
951.585	150.03342
951.759	171.12431
951.933	101.53244
952.107	84.66525
952.281	147.92445
952.455	124.72714
952.629	166.90597
952.803	93.09867
952.977	141.59765
953.151	118.40105
953.325	147.92445
953.499	112.07516
953.672	137.37989
953.846	156.36047
954.02	84.66525
954.194	126.83588
954.368	185.88917
954.541	177.45199
954.715	120.50972
954.889	105.74946
955.062	185.88917
955.236	147.92445
955.41	179.56125
955.583	147.92445
955.757	164.79683
955.93	139.48876
956.104	118.40105
956.278	152.14241
956.451	-33.36373
956.625	101.53244
956.798	154.25143
956.972	145.81549
957.145	109.96657
957.319	137.37989
957.492	97.31551
957.665	67.79949
957.839	169.01513
958.012	145.81549
958.185	97.31551
958.359	152.14241
958.532	84.66525
958.705	124.72714
958.879	101.53244
959.052	76.23219
959.225	135.27105
959.398	97.31551
959.572	86.77357
959.745	152.14241
959.918	65.69137
960.091	120.50972
960.264	59.36716
960.438	156.36047
960.611	103.64094
960.784	55.15113
960.957	122.61842
961.13	69.90763
961.303	135.27105
961.476	185.88917
961.649	95.20708
961.822	204.87403
961.995	171.12431
962.168	137.37989
962.341	114.18377
962.514	139.48876
962.686	128.94464
962.859	137.37989
963.032	90.99028
963.205	105.74946
963.378	72.0158
963.551	86.77357
963.723	84.66525
963.896	36.18013
964.069	131.05342
964.242	124.72714
964.414	185.88917
964.587	185.88917
964.76	99.42397
964.932	122.61842
965.105	122.61842
965.278	80.44868
965.45	118.40105
965.623	156.36047
965.795	57.25913
965.968	173.23352
966.14	103.64094
966.313	88.88192
966.485	31.96461
966.658	112.07516
966.83	103.64094
967.003	76.23219
967.175	105.74946
967.348	122.61842
967.52	65.69137
967.692	72.0158
967.865	131.05342
968.037	67.79949
968.209	76.23219
968.382	42.50359
968.554	126.83588
968.726	135.27105
968.898	67.79949
969.071	103.64094
969.243	4.56604
969.415	67.79949
969.587	50.93519
969.759	48.82725
969.932	135.27105
970.104	72.0158
970.276	118.40105
970.448	50.93519
970.62	109.96657
970.792	76.23219
970.964	122.61842
971.136	114.18377
971.308	67.79949
971.48	78.34042
971.652	90.99028
971.824	118.40105
971.996	101.53244
972.168	59.36716
972.339	78.34042
972.511	135.27105
972.683	69.90763
972.855	145.81549
973.027	105.74946
973.199	53.04315
973.37	120.50972
973.542	112.07516
973.714	86.77357
973.886	116.2924
974.057	29.85689
974.229	10.88843
974.401	61.47521
974.572	72.0158
974.744	53.04315
974.915	40.39575
975.087	150.03342
975.259	114.18377
975.43	177.45199
975.602	67.79949
975.773	23.53386
975.945	80.44868
976.116	46.71934
976.288	154.25143
976.459	86.77357
976.63	116.2924
976.802	109.96657
976.973	122.61842
977.145	46.71934
977.316	126.83588
977.487	114.18377
977.659	0.35123
977.83	99.42397
978.001	101.53244
978.172	50.93519
978.344	65.69137
978.515	101.53244
978.686	107.85801
978.857	59.36716
979.028	103.64094
979.2	34.07236
979.371	50.93519
979.542	69.90763
979.713	36.18013
979.884	101.53244
980.055	95.20708
980.226	103.64094
980.397	105.74946
980.568	67.79949
980.739	109.96657
980.91	31.96461
981.081	61.47521
981.252	55.15113
981.423	50.93519
981.594	-48.11204
981.765	44.61145
981.936	21.42623
982.106	-3.86348
982.277	59.36716
982.448	143.70656
982.619	42.50359
982.79	2.45862
982.96	67.79949
983.131	42.50359
983.302	46.71934
983.472	90.99028
983.643	-16.50703
983.814	31.96461
983.984	80.44868
984.155	59.36716
984.326	2.45862
984.496	116.2924
984.667	122.61842
984.837	72.0158
985.008	109.96657
985.178	101.53244
985.349	55.15113
985.519	90.99028
985.69	86.77357
985.86	67.79949
986.031	-12.29261
986.201	59.36716
986.371	-18.61421
986.542	-5.9708
986.712	-16.50703
986.882	118.40105
987.053	42.50359
987.223	21.42623
987.393	42.50359
987.563	69.90763
987.734	84.66525
987.904	44.61145
988.074	63.58328
988.244	0.35123
988.414	-1.75614
988.585	21.42623
988.755	21.42623
988.925	17.21104
989.095	-5.9708
989.265	42.50359
989.435	78.34042
989.605	-3.86348
989.775	63.58328
989.945	0.35123
990.115	118.40105
990.285	27.74919
990.455	80.44868
990.625	44.61145
990.795	59.36716
990.965	84.66525
991.134	65.69137
991.304	69.90763
991.474	27.74919
991.644	44.61145
991.814	59.36716
991.984	36.18013
992.153	59.36716
992.323	34.07236
992.493	2.45862
992.662	78.34042
992.832	67.79949
993.002	50.93519
993.171	88.88192
993.341	29.85689
993.511	86.77357
993.68	109.96657
993.85	40.39575
994.019	61.47521
994.189	-14.39983
994.358	-12.29261
994.528	21.42623
994.697	-27.04265
994.867	61.47521
995.036	76.23219
995.206	95.20708
995.375	118.40105
995.544	-8.0781
995.714	17.21104
995.883	59.36716
996.052	38.28793
996.222	67.79949
996.391	-5.9708
996.56	131.05342
996.73	34.07236
996.899	21.42623
997.068	63.58328
997.237	50.93519
997.406	8.78094
997.576	25.64151
997.745	25.64151
997.914	8.78094
998.083	50.93519
998.252	82.55695
998.421	-33.36373
998.59	38.28793
998.759	12.99594
998.928	29.85689
999.097	53.04315
999.266	50.93519
999.435	61.47521
999.604	38.28793
999.773	-88.13691
999.942	107.85801
1000.111	86.77357
1000.28	82.55695
1000.448	19.31862
1000.617	55.15113
1000.786	-12.29261
1000.955	12.99594
1001.124	135.27105
1001.292	53.04315
1001.461	38.28793
1001.63	46.71934
1001.798	4.56604
1001.967	34.07236
1002.136	44.61145
1002.304	38.28793
1002.473	-41.79148
1002.642	78.34042
1002.81	-16.50703
1002.979	101.53244
1003.147	12.99594
1003.316	17.21104
1003.484	57.25913
1003.653	46.71934
1003.821	53.04315
1003.99	55.15113
1004.158	74.12398
1004.327	-39.68458
1004.495	34.07236
1004.663	63.58328
1004.832	116.2924
1005	72.0158
1005.168	57.25913
1005.337	-24.93558
1005.505	38.28793
1005.673	-3.86348
1005.842	-12.29261
1006.01	46.71934
1006.178	0.35123
1006.346	69.90763
1006.514	46.71934
1006.683	61.47521
1006.851	27.74919
1007.019	-20.72135
1007.187	27.74919
1007.355	50.93519
1007.523	-5.9708
1007.691	63.58328
1007.859	29.85689
1008.027	25.64151
1008.195	17.21104
1008.363	17.21104
1008.531	59.36716
1008.699	55.15113
1008.867	31.96461
1009.035	12.99594
1009.203	34.07236
1009.37	86.77357
1009.538	25.64151
1009.706	-16.50703
1009.874	84.66525
1010.042	-35.47071
1010.209	17.21104
1010.377	63.58328
1010.545	27.74919
1010.713	84.66525
1010.88	-37.57766
1011.048	-1.75614
1011.216	36.18013
1011.383	44.61145
1011.551	42.50359
1011.718	-20.72135
1011.886	34.07236
1012.054	-50.21884
1012.221	23.53386
1012.389	0.35123
1012.556	95.20708
1012.724	25.64151
1012.891	38.28793
1013.058	23.53386
1013.226	10.88843
1013.393	-41.79148
1013.561	53.04315
1013.728	-8.0781
1013.895	19.31862
1014.063	84.66525
1014.23	46.71934
1014.397	15.10348
1014.565	40.39575
1014.732	12.99594
1014.899	72.0158
1015.066	61.47521
1015.233	36.18013
1015.401	21.42623
1015.568	82.55695
1015.735	27.74919
1015.902	42.50359
1016.069	27.74919
1016.236	-16.50703
1016.403	38.28793
1016.57	-52.32561
1016.737	-1.75614
1016.904	17.21104
1017.071	38.28793
1017.238	34.07236
1017.405	25.64151
1017.572	-10.18537
1017.739	-46.00521
1017.906	67.79949
1018.073	-5.9708
1018.24	50.93519
1018.407	-18.61421
1018.573	17.21104
1018.74	12.99594
1018.907	29.85689
1019.074	72.0158
1019.241	-29.1497
1019.407	95.20708
1019.574	-50.21884
1019.741	21.42623
1019.907	42.50359
1020.074	0.35123
1020.241	80.44868
1020.407	-3.86348
1020.574	34.07236
1020.74	-8.0781
1020.907	-20.72135
1021.073	2.45862
1021.24	21.42623
1021.406	0.35123
1021.573	0.35123
1021.739	8.78094
1021.906	6.67348
1022.072	50.93519
1022.239	-48.11204
1022.405	-16.50703
1022.571	86.77357
1022.738	48.82725
1022.904	44.61145
1023.07	21.42623
1023.237	-24.93558
1023.403	42.50359
1023.569	-12.29261
1023.735	-14.39983
1023.902	31.96461
1024.068	42.50359
1024.234	50.93519
1024.4	2.45862
1024.566	-20.72135
1024.732	38.28793
1024.898	17.21104
1025.065	15.10348
1025.231	21.42623
1025.397	12.99594
1025.563	67.79949
1025.729	38.28793
1025.895	50.93519
1026.061	69.90763
1026.227	42.50359
1026.392	0.35123
1026.558	-31.25673
1026.724	-16.50703
1026.89	42.50359
1027.056	-24.93558
1027.222	76.23219
1027.388	29.85689
1027.553	57.25913
1027.719	15.10348
1027.885	-22.82848
1028.051	-33.36373
1028.216	-14.39983
1028.382	55.15113
1028.548	0.35123
1028.713	-14.39983
1028.879	59.36716
1029.045	4.56604
1029.21	118.40105
1029.376	-43.89836
1029.541	50.93519
1029.707	-8.0781
1029.873	-35.47071
1030.038	-24.93558
1030.204	63.58328
1030.369	86.77357
1030.534	17.21104
1030.7	126.83588
1030.865	34.07236
1031.031	10.88843
1031.196	38.28793
1031.361	44.61145
1031.527	44.61145
1031.692	40.39575
1031.857	93.09867
1032.023	2.45862
1032.188	2.45862
1032.353	-3.86348
1032.518	-24.93558
1032.684	23.53386
1032.849	23.53386
1033.014	29.85689
1033.179	34.07236
1033.344	6.67348
1033.509	-46.00521
1033.674	21.42623
1033.839	6.67348
1034.004	-18.61421
1034.17	25.64151
1034.335	12.99594
1034.5	-54.43236
1034.664	-24.93558
1034.829	-8.0781
1034.994	-33.36373
1035.159	88.88192
1035.324	69.90763
1035.489	34.07236
1035.654	12.99594
1035.819	29.85689
1035.984	-62.85911
1036.148	90.99028
1036.313	8.78094
1036.478	-5.9708
1036.643	-33.36373
1036.807	19.31862
1036.972	48.82725
1037.137	19.31862
1037.301	-8.0781
1037.466	4.56604
1037.631	-20.72135
1037.795	103.64094
1037.96	-16.50703
1038.124	-14.39983
1038.289	50.93519
1038.454	34.07236
1038.618	6.67348
1038.783	-8.0781
1038.947	80.44868
1039.111	10.88843
1039.276	12.99594
1039.44	4.56604
1039.605	53.04315
1039.769	-37.57766
1039.933	-8.0781
1040.098	2.45862
1040.262	-24.93558
1040.426	-3.86348
1040.591	27.74919
1040.755	29.85689
1040.919	-50.21884
1041.083	-33.36373
1041.248	48.82725
1041.412	99.42397
1041.576	44.61145
1041.74	19.31862
1041.904	84.66525
1042.068	17.21104
1042.232	69.90763
1042.397	-12.29261
1042.561	21.42623
1042.725	-12.29261
1042.889	36.18013
1043.053	-29.1497
1043.217	-12.29261
1043.381	12.99594
1043.544	34.07236
1043.708	-46.00521
1043.872	53.04315
1044.036	-58.64579
1044.2	17.21104
1044.364	10.88843
1044.528	25.64151
1044.691	12.99594
1044.855	19.31862
1045.019	10.88843
1045.183	46.71934
1045.346	44.61145
1045.51	25.64151
1045.674	55.15113
1045.837	8.78094
1046.001	40.39575
1046.165	63.58328
1046.328	44.61145
1046.492	-16.50703
1046.655	-41.79148
1046.819	-39.68458
1046.983	-12.29261
1047.146	25.64151
1047.31	29.85689
1047.473	31.96461
1047.636	6.67348
1047.8	44.61145
1047.963	34.07236
1048.127	-33.36373
1048.29	61.47521
