Data from absorb_only_2.23.25_USB4F045381__81__0186.txt Node

Date: Sun Feb 23 19:29:14 EST 2025
User: ssocol
Spectrometer: USB4F04538
Trigger mode: 4
Integration Time (sec): 2.600000E-3
Scans to average: 1
Electric dark correction enabled: true
Nonlinearity correction enabled: true
Boxcar width: 0
XAxis mode: Wavelengths
Number of Pixels in Spectrum: 3648
>>>>>Begin Spectral Data<<<<<
345.52	7.90283
345.736	7.90283
345.952	7.90283
346.168	-61.63024
346.384	-13.17063
346.6	-11.06339
346.816	-65.84349
347.032	24.76332
347.248	52.16483
347.464	14.22533
347.68	-44.77622
347.896	-23.70644
348.112	43.73317
348.328	73.24557
348.544	-30.02763
348.76	-25.81353
348.975	-6.84884
349.191	26.87099
349.407	-19.49219
349.623	18.44046
349.839	-80.58907
350.055	-2.6342
350.27	-67.95008
350.486	-70.05664
350.702	94.32857
350.918	-48.98987
351.133	-15.27784
351.349	66.92111
351.565	-11.06339
351.781	-46.88306
351.996	58.48881
352.212	35.30189
352.428	-11.06339
352.644	-19.49219
352.859	-19.49219
353.075	28.97868
353.291	14.22533
353.506	119.63111
353.722	-40.56246
353.938	-11.06339
354.153	43.73317
354.369	-61.63024
354.584	-44.77622
354.8	14.22533
355.016	-19.49219
355.231	-19.49219
355.447	-2.6342
355.662	-0.52684
355.878	1.58054
356.093	-70.05664
356.309	-6.84884
356.524	52.16483
356.74	5.79537
356.955	-17.38502
357.171	-15.27784
357.386	50.05688
357.602	1.58054
357.817	10.01031
358.033	41.62532
358.248	16.33288
358.464	18.44046
358.679	-51.09666
358.895	73.24557
359.11	-15.27784
359.325	-19.49219
359.541	50.05688
359.756	77.46199
359.972	-32.13465
360.187	-17.38502
360.402	-51.09666
360.618	22.65567
360.833	-11.06339
361.048	47.94895
361.264	7.90283
361.479	22.65567
361.694	-38.45555
361.909	39.51749
362.125	47.94895
362.34	-36.3486
362.555	-15.27784
362.77	14.22533
362.986	64.813
363.201	-2.6342
363.416	-23.70644
363.631	5.79537
363.847	-38.45555
364.062	-34.24164
364.277	-25.81353
364.492	-8.95613
364.707	-36.3486
364.922	56.38079
365.138	31.08639
365.353	28.97868
365.568	-129.02985
365.783	-70.05664
365.998	-6.84884
366.213	-27.92059
366.428	39.51749
366.643	-8.95613
366.858	-11.06339
367.073	-2.6342
367.288	-70.05664
367.503	-25.81353
367.718	-8.95613
367.933	56.38079
368.148	31.08639
368.363	-2.6342
368.578	-15.27784
368.793	43.73317
369.008	-6.84884
369.223	-11.06339
369.438	-84.80186
369.653	14.22533
369.868	-0.52684
370.083	-6.84884
370.298	-78.48264
370.513	64.813
370.728	-27.92059
370.943	14.22533
371.157	64.813
371.372	58.48881
371.587	-19.49219
371.802	5.79537
372.017	-27.92059
372.232	16.33288
372.446	50.05688
372.661	-34.24164
372.876	26.87099
373.091	-25.81353
373.306	-48.98987
373.52	-32.13465
373.735	60.59685
373.95	41.62532
374.165	5.79537
374.379	-11.06339
374.594	-44.77622
374.809	-21.59933
375.023	14.22533
375.238	28.97868
375.453	-34.24164
375.667	-27.92059
375.882	3.68794
376.097	5.79537
376.311	-48.98987
376.526	-11.06339
376.741	31.08639
376.955	14.22533
377.17	-15.27784
377.384	-27.92059
377.599	-0.52684
377.813	10.01031
378.028	47.94895
378.242	-11.06339
378.457	35.30189
378.672	62.70491
378.886	47.94895
379.101	-25.81353
379.315	-34.24164
379.53	14.22533
379.744	18.44046
379.958	7.90283
380.173	-61.63024
380.387	-2.6342
380.602	24.76332
380.816	-48.98987
381.031	-2.6342
381.245	-15.27784
381.459	-30.02763
381.674	12.11781
381.888	-19.49219
382.103	-57.41689
382.317	39.51749
382.531	5.79537
382.746	-27.92059
382.96	-11.06339
383.174	-42.66935
383.388	-74.26969
383.603	41.62532
383.817	-2.6342
384.031	-17.38502
384.246	-11.06339
384.46	-32.13465
384.674	47.94895
384.888	62.70491
385.103	12.11781
385.317	-2.6342
385.531	-23.70644
385.745	-19.49219
385.959	14.22533
386.174	-40.56246
386.388	18.44046
386.602	10.01031
386.816	24.76332
387.03	1.58054
387.244	-65.84349
387.458	-27.92059
387.672	-4.74153
387.887	-19.49219
388.101	5.79537
388.315	7.90283
388.529	81.6785
388.743	-19.49219
388.957	10.01031
389.171	18.44046
389.385	37.40968
389.599	-78.48264
389.813	14.22533
390.027	-74.26969
390.241	-6.84884
390.455	-48.98987
390.669	-19.49219
390.883	14.22533
391.097	73.24557
391.311	-34.24164
391.525	3.68794
391.738	-44.77622
391.952	10.01031
392.166	24.76332
392.38	39.51749
392.594	10.01031
392.808	-15.27784
393.022	52.16483
393.236	-2.6342
393.449	-15.27784
393.663	47.94895
393.877	-17.38502
394.091	71.13739
394.305	47.94895
394.518	-34.24164
394.732	66.92111
394.946	-65.84349
395.16	31.08639
395.373	14.22533
395.587	20.54805
395.801	-78.48264
396.015	-19.49219
396.228	94.32857
396.442	1.58054
396.656	-8.95613
396.869	26.87099
397.083	54.2728
397.297	-19.49219
397.51	31.08639
397.724	7.90283
397.938	22.65567
398.151	18.44046
398.365	26.87099
398.578	77.46199
398.792	85.8951
399.005	39.51749
399.219	-17.38502
399.433	3.68794
399.646	-11.06339
399.86	-0.52684
400.073	-11.06339
400.287	16.33288
400.5	3.68794
400.714	-2.6342
400.927	-6.84884
401.141	-17.38502
401.354	10.01031
401.567	10.01031
401.781	73.24557
401.994	-51.09666
402.208	31.08639
402.421	-34.24164
402.635	-51.09666
402.848	41.62532
403.061	94.32857
403.275	-23.70644
403.488	75.35377
403.701	-30.02763
403.915	-19.49219
404.128	-0.52684
404.341	7.90283
404.555	-11.06339
404.768	64.813
404.981	66.92111
405.195	54.2728
405.408	16.33288
405.621	20.54805
405.834	28.97868
406.048	20.54805
406.261	-11.06339
406.474	56.38079
406.687	5.79537
406.9	22.65567
407.114	-36.3486
407.327	26.87099
407.54	41.62532
407.753	-27.92059
407.966	-40.56246
408.179	-42.66935
408.392	-15.27784
408.605	-11.06339
408.819	73.24557
409.032	10.01031
409.245	24.76332
409.458	1.58054
409.671	75.35377
409.884	-2.6342
410.097	31.08639
410.31	50.05688
410.523	-15.27784
410.736	5.79537
410.949	-11.06339
411.162	75.35377
411.375	31.08639
411.588	-48.98987
411.801	-36.3486
412.014	73.24557
412.227	10.01031
412.44	41.62532
412.653	-59.52357
412.865	33.19413
413.078	-19.49219
413.291	-4.74153
413.504	24.76332
413.717	-6.84884
413.93	-2.6342
414.143	-48.98987
414.356	-0.52684
414.568	26.87099
414.781	-40.56246
414.994	33.19413
415.207	3.68794
415.42	-53.20343
415.632	41.62532
415.845	16.33288
416.058	24.76332
416.271	22.65567
416.483	-8.95613
416.696	33.19413
416.909	14.22533
417.121	26.87099
417.334	7.90283
417.547	-2.6342
417.759	26.87099
417.972	7.90283
418.185	22.65567
418.397	-11.06339
418.61	-63.73688
418.823	7.90283
419.035	14.22533
419.248	47.94895
419.46	20.54805
419.673	14.22533
419.885	47.94895
420.098	18.44046
420.311	37.40968
420.523	-19.49219
420.736	54.2728
420.948	-17.38502
421.161	1.58054
421.373	-51.09666
421.586	33.19413
421.798	-11.06339
422.01	-36.3486
422.223	1.58054
422.435	58.48881
422.648	-0.52684
422.86	-2.6342
423.073	-2.6342
423.285	22.65567
423.497	16.33288
423.71	54.2728
423.922	52.16483
424.134	39.51749
424.347	24.76332
424.559	14.22533
424.771	47.94895
424.984	-40.56246
425.196	41.62532
425.408	39.51749
425.621	-36.3486
425.833	47.94895
426.045	81.6785
426.257	24.76332
426.47	20.54805
426.682	31.08639
426.894	10.01031
427.106	-17.38502
427.318	-53.20343
427.531	5.79537
427.743	52.16483
427.955	52.16483
428.167	41.62532
428.379	-53.20343
428.591	-48.98987
428.804	-36.3486
429.016	56.38079
429.228	-21.59933
429.44	60.59685
429.652	47.94895
429.864	-13.17063
430.076	24.76332
430.288	5.79537
430.5	37.40968
430.712	-25.81353
430.924	-17.38502
431.136	-15.27784
431.348	1.58054
431.56	22.65567
431.772	-23.70644
431.984	22.65567
432.196	14.22533
432.408	-21.59933
432.62	1.58054
432.832	-2.6342
433.044	-8.95613
433.256	43.73317
433.468	66.92111
433.679	73.24557
433.891	1.58054
434.103	24.76332
434.315	58.48881
434.527	18.44046
434.739	22.65567
434.95	1.58054
435.162	-8.95613
435.374	7.90283
435.586	31.08639
435.798	-44.77622
436.009	-32.13465
436.221	39.51749
436.433	-4.74153
436.645	-86.90822
436.856	39.51749
437.068	-25.81353
437.28	14.22533
437.491	1.58054
437.703	14.22533
437.915	39.51749
438.126	81.6785
438.338	31.08639
438.55	-6.84884
438.761	-11.06339
438.973	35.30189
439.184	85.8951
439.396	56.38079
439.608	18.44046
439.819	12.11781
440.031	26.87099
440.242	18.44046
440.454	28.97868
440.665	24.76332
440.877	33.19413
441.088	5.79537
441.3	66.92111
441.511	-30.02763
441.723	-34.24164
441.934	-19.49219
442.146	90.11179
442.357	-11.06339
442.569	43.73317
442.78	12.11781
442.991	-6.84884
443.203	60.59685
443.414	26.87099
443.626	-23.70644
443.837	77.46199
444.048	22.65567
444.26	16.33288
444.471	-0.52684
444.682	50.05688
444.894	64.813
445.105	31.08639
445.316	5.79537
445.528	31.08639
445.739	39.51749
445.95	-51.09666
446.161	22.65567
446.373	43.73317
446.584	3.68794
446.795	-0.52684
447.006	39.51749
447.217	79.57023
447.429	-13.17063
447.64	33.19413
447.851	18.44046
448.062	50.05688
448.273	45.84105
448.484	-32.13465
448.695	24.76332
448.907	7.90283
449.118	1.58054
449.329	-55.31017
449.54	43.73317
449.751	20.54805
449.962	47.94895
450.173	31.08639
450.384	50.05688
450.595	83.78679
450.806	50.05688
451.017	64.813
451.228	-19.49219
451.439	35.30189
451.65	64.813
451.861	73.24557
452.072	-34.24164
452.283	81.6785
452.494	10.01031
452.705	-13.17063
452.915	-8.95613
453.126	92.22017
453.337	-27.92059
453.548	-32.13465
453.759	-0.52684
453.97	-0.52684
454.181	22.65567
454.391	73.24557
454.602	58.48881
454.813	22.65567
455.024	58.48881
455.235	90.11179
455.445	106.97945
455.656	-8.95613
455.867	136.50121
456.078	31.08639
456.288	-19.49219
456.499	-2.6342
456.71	90.11179
456.921	5.79537
457.131	-99.54581
457.342	20.54805
457.553	26.87099
457.763	47.94895
457.974	-0.52684
458.184	83.78679
458.395	79.57023
458.606	47.94895
458.816	-6.84884
459.027	-32.13465
459.237	50.05688
459.448	24.76332
459.659	-44.77622
459.869	18.44046
460.08	73.24557
460.29	39.51749
460.501	98.54544
460.711	5.79537
460.922	39.51749
461.132	18.44046
461.343	123.8485
461.553	24.76332
461.764	18.44046
461.974	22.65567
462.184	5.79537
462.395	-2.6342
462.605	39.51749
462.816	-34.24164
463.026	45.84105
463.236	85.8951
463.447	5.79537
463.657	41.62532
463.867	64.813
464.078	31.08639
464.288	1.58054
464.498	52.16483
464.709	58.48881
464.919	64.813
465.129	31.08639
465.339	111.19658
465.55	-23.70644
465.76	79.57023
465.97	79.57023
466.18	64.813
466.391	50.05688
466.601	-6.84884
466.811	102.7624
467.021	75.35377
467.231	109.088
467.441	128.06598
467.651	104.87091
467.862	31.08639
468.072	16.33288
468.282	106.97945
468.492	26.87099
468.702	94.32857
468.912	62.70491
469.122	138.61006
469.332	77.46199
469.542	20.54805
469.752	66.92111
469.962	111.19658
470.172	64.813
470.382	83.78679
470.592	1.58054
470.802	77.46199
471.012	52.16483
471.222	81.6785
471.432	125.95723
471.642	75.35377
471.852	96.437
472.062	138.61006
472.272	157.59075
472.482	115.4138
472.691	140.71894
472.901	58.48881
473.111	149.15468
473.321	81.6785
473.531	149.15468
473.741	96.437
473.95	180.79167
474.16	174.4639
474.37	117.52244
474.58	159.69982
474.79	153.37267
474.999	109.088
475.209	47.94895
475.419	191.33836
475.628	182.90097
475.838	172.35468
476.048	172.35468
476.258	216.6525
476.467	199.77609
476.677	140.71894
476.886	199.77609
477.096	203.99507
477.306	225.09118
477.515	218.76214
477.725	339.04311
477.935	149.15468
478.144	214.54287
478.354	191.33836
478.563	279.95016
478.773	250.4091
478.982	301.05315
479.192	229.31064
479.401	197.66663
479.611	286.28086
479.82	360.15111
480.03	222.98148
480.239	385.48296
480.449	296.83241
480.658	233.53017
480.868	275.72978
481.077	393.92744
481.287	347.4861
481.496	322.15797
481.705	385.48296
481.915	294.72206
482.124	377.03874
482.333	450.9345
482.543	391.8163
482.752	436.15378
482.961	385.48296
483.171	510.06483
483.38	370.70575
483.589	474.16288
483.799	482.61001
484.008	558.64466
484.217	524.84921
484.426	588.21852
484.636	541.74649
484.845	592.44357
485.054	554.42003
485.263	524.84921
485.472	564.98169
485.682	567.09406
485.891	562.86933
486.1	605.11903
486.309	520.62503
486.518	750.91783
486.727	588.21852
486.936	672.72903
487.146	736.12421
487.355	613.56959
487.564	670.61603
487.773	841.80349
487.982	761.485
488.191	791.07442
488.4	841.80349
488.609	922.13473
488.818	769.93892
489.027	879.85366
489.236	839.68967
489.445	968.64741
489.654	784.73367
489.863	977.10462
490.072	913.67827
490.281	943.27643
490.49	987.67629
490.698	1042.65153
490.907	949.61908
491.116	1070.14064
491.325	1108.20395
491.534	1029.96458
491.743	977.10462
491.952	1065.91149
492.16	1129.35091
492.369	1019.39227
492.578	1154.72785
492.787	1188.56467
492.996	1150.49832
493.204	1158.9574
493.413	1239.32159
493.622	1260.47082
493.831	1239.32159
494.039	1230.86198
494.248	1307
494.457	1370.45033
494.665	1309.11498
494.874	1510.04342
495.083	1247.78125
495.291	1507.92838
495.5	1260.47082
495.709	1444.47689
495.917	1328.14995
496.126	1455.05215
496.335	1620.02399
496.543	1677.12726
496.752	1476.20267
496.96	1579.83925
497.169	1495.23811
497.377	1590.41425
497.586	1628.48384
497.794	1668.66763
498.003	1522.73366
498.211	1645.40344
498.42	1666.55272
498.628	1878.02659
498.837	1643.2885
499.045	1806.13003
499.254	1710.9653
499.462	1689.81661
499.671	1586.18425
499.879	1878.02659
500.087	1772.29457
500.296	1839.96439
500.504	1875.91207
500.713	1854.76655
500.921	1835.73516
501.129	1765.95031
501.338	1804.01535
501.546	2087.33533
501.754	1909.74383
501.962	2053.51199
502.171	2004.88781
502.379	2163.4308
502.587	1846.3082
502.795	2119.043
503.004	2007.00198
503.212	2212.04188
503.42	1903.40048
503.628	2097.90474
503.837	2030.2574
504.045	2123.27055
504.253	2180.3395
504.461	2279.66703
504.669	2116.9292
504.877	2231.06237
505.085	2305.02405
505.294	2444.46221
505.502	2171.88521
505.71	2374.74866
505.918	2197.24767
506.126	2309.25008
506.334	2258.53516
506.542	2330.37969
506.75	2296.57186
506.958	2385.31205
507.166	2421.22563
507.374	2414.88816
507.582	2474.03413
507.79	2461.36071
507.998	2419.11315
508.206	2611.30317
508.414	2512.05199
508.622	2680.97413
508.83	2474.03413
509.037	2613.41461
509.245	2347.28267
509.453	2552.17794
509.661	2374.74866
509.869	2611.30317
510.077	2541.61889
510.285	2773.84696
510.492	2659.86316
510.7	2744.29929
510.908	2609.19171
511.116	2805.50224
511.324	2668.3077
511.531	2830.82423
511.739	2647.19597
511.947	2822.38379
512.155	2771.7365
512.362	2845.59447
512.57	2649.3072
512.778	2906.77805
512.985	2845.59447
513.193	2875.13287
513.401	2805.50224
513.608	2771.7365
513.816	2693.6401
514.024	2997.47595
514.231	2873.02308
514.439	3062.8455
514.646	2835.04437
514.854	2942.63863
515.061	2906.77805
515.269	2908.88761
515.477	2904.66847
515.684	3022.78205
515.892	2940.5293
516.099	3119.76807
516.307	2957.40352
516.514	3206.1837
516.722	3018.56452
516.929	3246.2206
517.136	3035.43427
517.344	3183.00171
517.551	2993.25806
517.759	3199.86153
517.966	3136.63179
518.173	3130.30802
518.381	3201.96894
518.588	3275.71761
518.796	3343.12682
519.003	3341.02055
519.21	3275.71761
519.418	3427.36332
519.625	3212.50571
519.832	3513.67616
520.039	3351.55173
520.247	3437.8909
520.454	3359.97637
520.661	3562.08215
520.868	3258.86258
521.076	3639.93204
521.283	3313.63745
521.49	3541.03726
521.697	3454.73409
521.904	3549.45544
522.112	3509.46648
522.319	3742.99061
522.526	3498.94197
522.733	3843.9008
522.94	3568.39525
523.147	3675.69226
523.354	3658.8646
523.561	3688.3122
523.768	3749.29882
523.975	3881.73039
524.183	3604.16635
524.39	3934.26072
524.597	3713.55001
524.804	3837.59524
525.011	3829.18756
525.218	3885.93328
525.425	3696.72511
525.632	3793.45136
525.838	3875.42591
526.045	4011.98239
526.252	3751.40152
526.459	4009.88217
526.666	3940.56352
526.873	4221.89927
527.08	3951.06777
527.287	3974.17533
527.494	3795.55365
527.701	4158.94621
527.907	4215.60482
528.114	4247.07515
528.321	4066.58083
528.528	4330.97248
528.735	4035.08343
528.941	4286.93066
529.148	4108.5701
529.355	4192.52354
529.562	4062.38145
529.768	4320.48719
529.975	4058.18198
530.182	4301.61232
530.388	4119.06612
530.595	4452.56211
530.802	4056.08221
531.008	4597.11562
531.215	4326.77843
531.422	4370.81162
531.628	4433.69956
531.835	4527.99448
532.042	4351.94142
532.248	4645.2766
532.455	4492.3772
532.661	4521.70954
532.868	4385.48723
533.074	4662.02547
533.281	4555.22691
533.487	4770.85798
533.694	4496.5678
533.9	4783.41165
534.107	4590.83288
534.313	4892.17573
534.52	4450.46636
534.726	4693.42572
534.933	4460.94489
535.139	4798.05656
535.345	4701.79827
535.552	4804.3326
535.758	4808.51652
535.965	4906.81234
536.171	4705.98441
536.377	5013.41646
536.584	4682.95953
536.79	4869.17309
536.996	4998.78807
537.203	4766.67325
537.409	4772.95032
537.615	4963.25727
537.821	4938.1727
538.028	5040.58047
538.234	4975.79831
538.44	5038.49107
538.646	4984.15855
538.853	5122.04904
539.059	4756.21101
539.265	5170.07805
539.471	4938.1727
539.677	5163.8141
539.883	5088.6303
540.09	5042.66985
540.296	5065.65148
540.502	5476.75416
540.708	5017.59579
540.914	5382.92752
541.12	5107.42907
541.326	5320.35
541.532	5071.91871
541.738	5359.98488
541.944	5147.10919
542.15	5466.33133
542.356	5264.01222
542.562	5322.43626
542.768	5401.69665
542.974	5328.69489
543.18	5505.93496
543.386	5589.28324
543.592	5341.21152
543.798	5714.23493
544.004	5355.81319
544.21	5724.64374
544.415	5605.94837
544.621	5743.3781
544.827	5449.65358
545.033	5555.94845
545.239	5460.07735
545.445	5737.13352
545.651	5605.94837
545.856	5843.26242
546.062	5610.11442
546.268	5674.67608
546.474	5558.03205
546.679	5716.31674
546.885	5422.54902
547.091	5664.26445
547.297	5466.33133
547.502	5774.59779
547.708	5705.90746
547.914	5930.61661
548.119	5859.90452
548.325	5801.65056
548.531	5368.32798
548.736	5864.06481
548.942	5716.31674
549.147	5807.89294
549.353	5770.43547
549.559	6020.00755
549.764	5701.74358
549.97	5889.02457
550.175	5768.35428
550.381	6007.53701
550.586	5870.30507
550.792	6017.92919
550.997	5799.56972
551.203	6130.12719
551.408	5876.54511
551.614	6142.5894
551.819	5972.19921
552.025	6125.97293
552.23	5990.90831
552.435	6123.89576
552.641	6223.57317
552.846	6088.58037
553.052	5957.64637
553.257	6418.61847
553.462	6209.04025
553.668	6372.98806
553.873	6217.34491
554.078	6466.31094
554.283	6074.03677
554.489	6329.42124
554.694	6105.20023
554.899	6368.83928
555.105	6281.69337
555.31	6395.80468
555.515	6296.22055
555.72	6530.57266
555.925	6244.33249
556.131	6603.09946
556.336	6520.20937
556.541	6547.15271
556.746	6464.23761
556.951	6567.87569
557.156	6439.35584
557.361	6588.59636
557.567	6225.6492
557.772	6752.20869
557.977	6443.50303
558.182	6663.17168
558.387	6337.72047
558.592	6636.24515
558.797	6559.58678
559.002	6530.57266
559.207	6661.10054
559.412	6592.74022
559.617	6503.62691
559.822	6938.42855
560.027	6372.98806
560.232	6754.27881
560.437	6787.39768
560.642	7010.79781
560.847	6652.81578
561.051	6777.04867
561.256	6464.23761
561.461	6998.39361
561.666	6975.65048
561.871	6772.9089
562.076	6921.88312
562.281	6770.83898
562.485	6702.51884
562.69	7112.06853
562.895	6630.03078
563.1	7060.40652
563.305	6851.54888
563.509	6892.92514
563.714	6818.44132
563.919	7045.93865
564.123	6834.99582
564.328	6888.78792
564.533	7012.8651
564.737	6777.04867
564.942	6768.76904
565.147	6886.71928
565.351	7110.00232
565.556	7033.53674
565.761	6917.74654
565.965	7002.52843
566.17	6959.1083
566.374	6884.65061
566.579	7112.06853
566.784	7099.67092
566.988	6979.78579
567.193	7202.95985
567.397	7023.2012
567.602	7014.93236
567.806	6853.6179
568.011	7258.71282
568.215	7242.1951
568.42	7200.89462
568.624	7233.93571
568.828	7363.98022
569.033	7238.06545
569.237	7396.99357
569.442	7254.58352
569.646	7390.80399
569.85	7184.37194
570.055	7256.64818
570.259	7328.89743
570.463	7396.99357
570.668	7153.3881
570.872	7246.32466
571.076	7316.51375
571.281	7318.57775
571.485	7198.82936
571.689	7520.74412
571.893	7580.52909
572.098	7599.07939
572.302	7421.74991
572.506	7483.62713
572.71	7526.92961
572.914	7537.23833
573.119	7392.8672
573.323	7572.28396
573.527	7314.44973
573.731	7671.20303
573.935	7683.56448
574.139	7638.23545
574.343	7430.00134
574.547	7673.26333
574.751	7432.06414
574.955	7763.89538
575.159	7483.62713
575.364	7619.6888
575.568	7456.81606
575.772	7578.46784
575.976	7493.9381
576.18	7697.9852
576.383	7794.78337
576.587	7710.345
576.791	7601.14042
576.995	7934.75031
577.199	7357.7896
577.403	7833.90143
577.607	7702.10522
577.811	7951.21074
578.015	7846.25294
578.219	7922.40413
578.422	7601.14042
578.626	8002.64113
578.83	7706.22515
579.034	8086.95946
579.238	7741.24118
579.442	8039.66313
579.645	7922.40413
579.849	7901.82552
580.053	8130.13376
580.257	8058.17166
580.46	7875.07023
580.664	7858.60371
580.868	8014.98253
581.071	7920.34636
581.275	8023.20972
581.479	7957.38306
581.682	7681.50429
581.886	8041.71971
582.09	8076.67856
582.293	8123.96655
582.497	7873.01199
582.7	8354.08815
582.904	7965.61254
583.107	8163.02254
583.311	8056.11524
583.515	8113.68745
583.718	8171.24393
583.922	8080.79098
584.125	8187.68576
584.329	8216.45591
584.532	8148.63433
584.735	8388.99583
584.939	8117.79915
585.142	8508.05071
585.346	8477.26683
585.549	8446.47865
585.753	8271.93025
585.956	8269.8759
586.159	8360.24874
586.363	8263.71274
586.566	8442.37323
586.769	8483.42395
586.973	8224.67524
587.176	8327.39026
587.379	8302.74313
587.582	8676.26092
587.786	8220.56562
587.989	8224.67524
588.192	8393.10224
588.395	8690.61451
588.599	8386.94259
588.802	8766.46851
589.005	8302.74313
589.208	8719.31898
589.411	8218.51077
589.615	8362.30223
589.818	8288.36433
590.021	8430.05653
590.224	8339.71277
590.427	8811.55903
590.63	8624.99066
590.833	8844.34663
591.036	8401.31485
591.239	8815.65774
591.442	8565.50254
591.645	8795.1635
591.848	8848.44475
592.051	9018.45397
592.254	8518.31106
592.457	8762.36894
592.66	8542.93395
592.863	8944.73004
593.066	8456.74186
593.269	8766.46851
593.472	8614.73521
593.675	8832.05182
593.878	8858.68975
594.081	9012.31118
594.284	8936.53708
594.486	8870.98315
594.689	8862.78762
594.892	8713.16833
595.095	8905.81095
595.298	9141.27696
595.5	8983.64274
595.703	9221.07877
595.906	8981.59486
596.109	9000.02513
596.311	8942.68183
596.514	8997.97739
596.717	8989.78627
596.92	9216.987
597.122	9131.04408
597.325	9073.73203
597.528	9094.20217
597.73	9431.71504
597.933	9081.92029
598.136	9296.76446
598.338	8860.73869
598.541	9341.75595
598.743	9106.48343
598.946	9306.9905
599.148	9108.53024
599.351	9126.95081
599.554	9257.9017
599.756	9155.60227
599.959	9165.83412
600.161	9313.12593
600.363	9317.21613
600.566	8860.73869
600.768	9214.94109
600.971	9274.2657
601.173	9333.57627
601.376	9364.24869
601.578	9266.08384
601.78	9634.00914
601.983	9372.42738
602.185	9253.81053
602.388	9313.12593
602.59	9401.05072
602.792	9597.23993
602.995	9405.13951
603.197	9396.96187
603.399	9409.22823
603.601	9204.71127
603.804	9268.12933
604.006	9194.48104
604.208	9525.72965
604.41	9040.9762
604.613	9343.80082
604.815	9227.2163
605.017	9556.37928
605.219	9384.69492
605.421	9229.26212
605.623	9313.12593
605.826	9599.28279
606.028	9613.58242
606.23	9601.32565
606.432	9372.42738
606.634	9656.47673
606.836	9409.22823
607.038	9529.81648
607.24	9556.37928
607.442	9490.98908
607.644	9376.51663
607.846	9617.66789
608.048	9464.41964
608.25	9707.53249
608.452	9589.0683
608.654	9584.98239
608.856	9247.67365
609.058	9495.07645
609.26	9680.9847
609.462	9478.7266
609.664	9448.06786
609.866	9589.0683
610.067	9472.59514
610.269	9705.49044
610.471	9296.76446
610.673	9542.07657
610.875	9597.23993
611.077	9705.49044
611.278	9294.7192
611.48	9640.13685
611.682	9495.07645
611.884	9911.66075
612.085	9574.76735
612.287	9638.0943
612.489	9364.24869
612.69	9911.66075
612.892	9535.94659
613.094	9591.11123
613.295	9378.56122
613.497	9670.77332
613.699	9715.70051
613.9	9823.90395
614.102	9646.26442
614.304	9734.07768
614.505	9576.81039
614.707	9815.73913
614.908	9644.22192
615.11	9597.23993
615.311	9378.56122
615.513	9723.8683
615.714	9629.92392
615.916	9734.07768
616.117	9564.55192
616.319	9944.30749
616.52	9642.17939
616.722	9932.0654
616.923	9887.17323
617.124	10015.70928
617.326	9582.93942
617.527	9848.39698
617.729	9874.92867
617.93	9742.24492
618.131	9613.58242
618.333	9623.79598
618.534	9546.16314
618.735	9734.07768
618.937	9823.90395
619.138	9736.11952
619.339	9509.38172
619.54	9668.73099
619.742	9776.95296
619.943	9972.87033
620.144	9797.36741
620.345	9736.11952
620.546	9584.98239
620.748	10080.97556
620.949	9762.66194
621.15	9923.90371
621.351	9713.65853
621.552	9836.15073
621.753	9742.24492
621.954	10064.66035
622.155	9687.11134
622.356	10048.34424
622.558	9864.72447
622.759	9768.78675
622.96	9437.84747
623.161	9883.09177
623.362	9752.45362
623.563	9891.25463
623.764	9889.21393
623.965	9670.77332
624.166	9876.96947
624.366	9860.64269
624.567	9801.45012
624.768	9946.34778
624.969	9746.32845
625.17	9936.14615
625.371	9742.24492
625.572	9858.60177
625.773	9842.27392
625.973	9891.25463
626.174	9656.47673
626.375	9854.5199
626.576	9825.94512
626.777	10029.98752
626.977	9666.68865
627.178	10209.42651
627.379	9797.36741
627.58	9905.53906
627.78	9825.94512
627.981	10140.11063
628.182	9901.45787
628.382	10074.85746
628.583	9695.27998
628.784	9940.22685
628.984	9811.65663
629.185	10119.72056
629.386	9993.27062
629.586	10278.72657
629.787	9721.82637
629.987	10009.58982
630.188	9854.5199
630.388	9956.54905
630.589	9907.57964
630.79	10205.34955
630.99	10021.82861
631.191	9948.38807
631.391	10003.47023
631.591	9944.30749
631.792	9844.31495
631.992	10492.64433
632.193	9858.60177
632.393	10160.49931
632.594	9964.70981
632.794	10195.1569
632.994	10013.66947
633.195	9927.98458
633.395	10046.30466
633.595	10333.74786
633.796	9856.56084
633.996	10148.26627
634.196	10317.44627
634.397	10213.50342
634.597	9854.5199
634.797	10168.6544
634.997	10107.48584
635.198	10331.71021
635.398	10062.62089
635.598	10384.68487
635.798	10058.54191
635.998	9966.74996
636.199	10042.22546
636.399	10162.5381
636.599	9776.95296
636.799	10350.0486
636.999	9899.41725
637.199	10317.44627
637.399	9985.11068
637.599	10244.0785
637.799	9985.11068
637.999	10254.26951
638.199	10009.58982
638.399	10223.69546
638.599	10227.77217
638.799	10246.11673
638.999	10290.95436
639.199	10146.22738
639.399	10111.56413
639.599	10325.59717
639.799	9817.78036
639.999	10368.38592
640.199	10087.09352
640.399	10380.61021
640.599	9972.87033
640.799	10274.65053
640.998	10107.48584
641.198	10358.19865
641.398	10211.46497
641.598	10494.68096
641.798	10417.28024
641.997	10348.01106
642.197	10258.34582
642.397	10714.56259
642.597	10262.42208
642.796	10290.95436
642.996	10144.18848
643.196	10364.31105
643.395	10203.31105
643.595	10486.53439
643.795	10290.95436
643.994	10221.65708
644.194	10107.48584
644.394	10519.11944
644.593	10262.42208
644.793	10555.77375
644.992	10178.84794
645.192	10411.16886
645.392	10262.42208
645.591	10396.90852
645.791	10472.2774
645.99	10620.92695
646.19	10488.57105
646.389	10453.94606
646.589	10292.99228
646.788	10227.77217
646.987	10182.92526
647.187	10451.90918
647.386	10325.59717
647.586	10551.70125
647.785	10368.38592
647.984	10374.49812
648.184	10413.206
648.383	10472.2774
648.582	10405.05737
648.782	10706.42138
648.981	10690.13838
649.18	10466.16707
649.38	10557.80998
649.579	10468.20386
649.778	10478.38761
649.977	10741.02019
650.177	10462.09345
650.376	10779.68536
650.575	10549.66499
650.774	10698.27998
650.973	10629.07021
651.173	10559.8462
651.372	10741.02019
651.571	10523.19235
651.77	10869.20944
651.969	10854.96848
652.168	10702.3507
652.367	10702.3507
652.566	10409.13171
652.765	10850.89953
652.964	10578.1716
653.163	10706.42138
653.362	10651.46315
653.561	10861.07182
653.76	10388.75947
653.959	10443.76153
654.158	10533.37438
654.357	10594.46
654.556	10288.91643
654.755	10596.496
654.954	10400.98297
655.153	10686.06751
655.352	10773.58061
655.551	10724.73883
655.749	10513.00999
655.948	10730.84443
656.147	10755.26575
656.346	10824.45022
656.545	10559.8462
656.743	10647.39182
656.942	10661.64127
657.141	10777.65045
657.34	10950.57558
657.538	10771.54568
657.737	10645.35613
657.936	10730.84443
658.135	10555.77375
658.333	10584.27985
658.532	10673.85461
658.731	10710.49201
658.929	10272.61249
659.128	10781.72025
659.326	10496.71757
659.525	10885.48413
659.724	10563.9186
659.922	10875.31254
660.121	10604.63985
660.319	10795.96415
660.518	10576.1355
660.716	10563.9186
660.915	10586.3159
661.113	10852.93401
661.312	10627.03441
661.51	10779.68536
661.709	10608.7117
661.907	10582.24378
662.105	10441.72458
662.304	10795.96415
662.502	10537.44711
662.701	10755.26575
662.899	10706.42138
663.097	10981.08321
663.296	10779.68536
663.494	11068.52458
663.692	10561.88241
663.891	10677.92562
664.089	10319.48402
664.287	10686.06751
664.485	10633.14176
664.684	10700.31534
664.882	10661.64127
665.08	10785.78999
665.278	10612.7835
665.476	10696.2446
665.675	10323.55947
665.873	10665.71243
666.071	10578.1716
666.269	10574.09938
666.467	10645.35613
666.665	10775.61554
666.863	10726.77404
667.061	10907.86063
667.259	10641.28472
667.457	10885.48413
667.655	10814.27689
667.853	10861.07182
668.051	10513.00999
668.249	10881.41553
668.447	10869.20944
668.645	10934.30381
668.843	10610.7476
669.041	10795.96415
669.239	10657.57006
669.437	10822.41558
669.635	10820.38093
669.833	10887.51842
670.031	10714.56259
670.229	10983.11697
670.426	10651.46315
670.624	10854.96848
670.822	10610.7476
671.02	10639.249
671.218	10559.8462
671.415	10639.249
671.613	10576.1355
671.811	10716.59786
672.009	10671.81908
672.206	10767.47577
672.404	10543.5561
672.602	10651.46315
672.799	10665.71243
672.997	10665.71243
673.195	10529.30161
673.392	10570.02711
673.59	10645.35613
673.788	10647.39182
673.985	10592.424
674.183	10816.31158
674.38	10602.6039
674.578	10897.68967
674.775	10675.89012
674.973	10380.61021
675.17	10608.7117
675.368	10572.06325
675.565	10405.05737
675.763	10567.99095
675.96	10384.68487
676.158	10594.46
676.355	10386.72218
676.553	10777.65045
676.75	10360.23613
676.947	10515.04649
677.145	10400.98297
677.342	10661.64127
677.539	10396.90852
677.737	10783.75513
677.934	10586.3159
678.131	10521.1559
678.329	10455.98292
678.526	10506.90043
678.723	10555.77375
678.92	10539.48345
679.118	10193.11833
679.315	10256.30768
679.512	10297.06808
679.709	10521.1559
679.906	10368.38592
680.104	10718.63312
680.301	10376.5355
680.498	10396.90852
680.695	10513.00999
680.892	10706.42138
681.089	10513.00999
681.286	10641.28472
681.483	10233.88715
681.68	10659.60567
681.877	10107.48584
682.075	10240.002
682.272	10315.40851
682.469	10466.16707
682.665	10356.16116
682.862	10325.59717
683.059	9976.9505
683.256	10354.12365
683.453	10276.68855
683.65	10443.76153
683.847	10221.65708
684.044	10335.7855
684.241	10182.92526
684.438	10366.34849
684.635	10091.1721
684.831	10329.67254
685.028	9842.27392
685.225	10121.75963
685.422	10029.98752
685.619	10068.73924
685.815	9923.90371
686.012	10225.73382
686.209	9936.14615
686.405	10189.04114
686.602	10152.34401
686.799	9952.46859
686.996	10111.56413
687.192	10070.77866
687.389	10138.07168
687.586	10244.0785
687.782	10244.0785
687.979	10097.28986
688.175	9927.98458
688.372	10303.18168
688.568	9991.23066
688.765	10113.60326
688.962	9738.16133
689.158	9960.62946
689.355	9893.2953
689.551	10001.43033
689.748	9881.05102
689.944	10032.02722
690.14	9656.47673
690.337	10290.95436
690.533	9962.66964
690.73	10148.26627
690.926	10144.18848
691.123	9946.34778
691.319	9703.44838
691.515	9976.9505
691.712	9809.61536
691.908	10058.54191
692.104	9744.28669
692.301	9887.17323
692.497	9876.96947
692.693	10095.25062
692.889	9813.69789
693.086	9934.10578
693.282	9923.90371
693.478	10011.62965
693.674	9842.27392
693.87	10307.25734
694.067	10046.30466
694.263	9811.65663
694.459	9652.39186
694.655	9887.17323
694.851	9936.14615
695.047	9879.01025
695.243	10029.98752
695.439	9909.6202
695.635	9435.80334
695.831	9981.03062
696.027	9850.43797
696.224	9887.17323
696.42	9879.01025
696.615	10015.70928
696.811	9683.02693
697.007	9844.31495
697.203	9568.63814
697.399	9817.78036
697.595	9546.16314
697.791	9668.73099
697.987	9554.33609
698.183	9889.21393
698.379	9556.37928
698.575	9817.78036
698.77	9617.66789
698.966	10107.48584
699.162	9664.6463
699.358	9621.7533
699.554	9339.71105
699.749	9568.63814
699.945	9603.36848
700.141	9656.47673
700.337	9540.03326
700.532	9638.0943
700.728	9589.0683
700.924	9742.24492
701.119	9768.78675
701.315	9482.81415
701.511	9458.28784
701.706	9795.32603
701.902	9517.55582
702.097	9697.3221
702.293	9874.92867
702.489	9678.94245
702.684	9396.96187
702.88	9315.17104
703.075	9550.24964
703.271	9480.77038
703.466	9145.36999
703.662	9807.57407
703.857	9364.24869
704.053	9535.94659
704.248	9443.97975
704.443	9797.36741
704.639	9200.61923
704.834	9621.7533
705.03	9427.62668
705.225	9636.05173
705.42	9384.69492
705.616	9625.83864
705.811	9139.23042
706.006	9572.7243
706.202	9321.30626
706.397	9558.42247
706.592	9278.35654
706.787	9298.8097
706.983	9286.538
707.178	9509.38172
707.373	9149.46295
707.568	9531.85987
707.763	9339.71105
707.959	9425.58247
708.154	9327.44134
708.349	9274.2657
708.544	9323.35131
708.739	9493.03277
708.934	9261.9928
709.129	9380.60581
709.324	9049.16557
709.519	9372.42738
709.714	9212.89516
709.909	9562.50878
710.104	9413.31689
710.299	9272.22026
710.494	9286.538
710.689	9421.49401
710.884	9163.78778
711.079	9466.46354
711.274	9141.27696
711.469	9286.538
711.664	9141.27696
711.859	9382.65037
712.054	9188.34269
712.249	9233.35369
712.443	8961.11511
712.638	9077.8262
712.833	9202.66526
713.028	9219.03289
713.223	9094.20217
713.417	9000.02513
713.612	8911.9565
713.807	9284.49266
714.002	9167.88044
714.196	9251.76492
714.391	9026.64412
714.586	9190.38882
714.78	9083.96732
714.975	9139.23042
715.17	8983.64274
715.364	9282.4473
715.559	8909.908
715.754	9096.24909
715.948	8729.56971
716.143	8905.81095
716.337	9028.69161
716.532	8981.59486
716.726	9090.10828
716.921	9302.90014
717.115	9188.34269
717.31	9131.04408
717.504	8965.2112
717.699	9016.40639
717.893	8868.93429
718.088	9104.43659
718.282	8823.85492
718.476	8838.1993
718.671	8782.86609
718.865	9118.76406
719.059	8977.49905
719.254	8920.15031
719.448	8737.76995
719.642	8989.78627
719.837	8838.1993
720.031	8719.31898
720.225	8688.56405
720.419	8985.6906
720.614	8666.00779
720.808	8899.66524
721.002	8672.15972
721.196	8801.31196
721.39	8493.68544
721.585	8739.81997
721.779	8696.76577
721.973	8721.36916
722.167	8450.58399
722.361	8903.7624
722.555	8616.78634
722.749	8840.24843
722.943	8520.36307
723.137	8661.90641
723.331	8417.73912
723.525	8356.1417
723.719	8376.67611
723.913	8641.39841
724.107	8409.52714
724.301	8825.90417
724.495	8688.56405
724.689	8606.53052
724.883	8567.55412
725.077	8622.93961
725.271	8214.40103
725.465	8292.47266
725.659	8197.96126
725.853	8503.94644
726.046	8308.90518
726.24	8524.46704
726.434	8421.845
726.628	8717.26878
726.822	8239.0583
727.015	8469.05707
727.209	8458.79444
727.403	8464.95207
727.596	8313.01311
727.79	8376.67611
727.984	8557.29605
728.177	8663.95711
728.371	8323.2826
728.565	8343.82012
728.758	8464.95207
728.952	8339.71277
729.146	8467.00458
729.339	8524.46704
729.533	8569.60568
729.726	8676.26092
729.92	8446.47865
730.113	8778.7668
730.307	8549.08925
730.5	8497.7899
730.694	8516.25903
730.887	8557.29605
731.081	8618.83745
731.274	8696.76577
731.468	8421.845
731.661	8698.81616
731.854	8770.56802
732.048	8520.36307
732.241	8378.72944
732.435	8709.0678
732.628	8811.55903
732.821	8483.42395
733.014	8265.76714
733.208	8304.79716
733.401	8462.89955
733.594	8481.3716
733.788	8495.73767
733.981	8335.60535
734.174	8222.62044
734.367	8191.79602
734.56	7998.52717
734.754	8505.99859
734.947	8251.38588
735.14	8208.23627
735.333	8204.12632
735.526	8442.37323
735.719	8372.56938
735.912	8181.52022
736.105	8163.02254
736.298	8265.76714
736.491	8261.65831
736.684	8384.88933
736.877	7988.24191
737.07	8220.56562
737.263	8280.14745
737.456	8446.47865
737.649	8380.78276
737.842	8269.8759
738.035	8343.82012
738.228	8327.39026
738.421	8364.3557
738.614	8107.51976
738.807	8323.2826
739	8210.29121
739.192	7901.82552
739.385	7899.76754
739.578	8249.33133
739.771	8130.13376
739.964	8017.03936
740.156	8224.67524
740.349	8045.83282
740.542	7776.25114
740.735	8078.73478
740.927	8021.15295
741.12	8148.63433
741.313	8121.91077
741.505	7996.47016
741.698	7918.28857
741.891	7881.24484
742.083	8014.98253
742.276	8074.62232
742.468	8171.24393
742.661	8027.32319
742.854	8368.46258
743.046	7967.66985
743.239	7969.72715
743.431	7903.88347
743.624	8027.32319
743.816	7870.95373
744.009	8043.77628
744.201	7751.53886
744.393	8000.58416
744.586	7819.49039
744.778	8101.35188
744.971	7724.76381
745.163	7977.95614
745.355	7940.92313
745.548	7973.84168
745.74	7860.6621
745.932	8047.88934
746.125	7936.80794
746.317	7819.49039
746.509	7889.47736
746.702	7751.53886
746.894	7638.23545
747.086	8072.56606
747.278	8017.03936
747.471	7673.26333
747.663	7687.68479
747.855	7852.42842
748.047	7702.10522
748.239	7920.34636
748.431	7774.1919
748.623	7786.54703
748.815	7700.04522
749.008	7706.22515
749.2	7833.90143
749.392	7743.30076
749.584	7768.01405
749.776	7712.4049
749.968	7761.83601
750.16	7938.86554
750.352	7599.07939
750.544	7504.24854
750.736	7662.96165
750.928	7870.95373
751.12	7479.50258
751.311	7500.12443
751.503	7739.18158
751.695	7852.42842
751.887	7592.89615
752.079	7619.6888
752.271	7396.99357
752.463	7697.9852
752.654	7693.8651
752.846	8039.66313
753.038	7594.95725
753.23	7570.22262
753.421	7405.24603
753.613	7613.5062
753.805	7594.95725
753.997	7570.22262
754.188	7372.23408
754.38	7524.8678
754.572	7405.24603
754.763	7512.4965
754.955	7388.74075
755.146	7594.95725
755.338	7430.00134
755.53	7430.00134
755.721	7409.37213
755.913	7574.34527
756.104	7446.50314
756.296	7496.00023
756.487	7378.42425
756.679	7388.74075
756.87	7143.05905
757.062	7143.05905
757.253	7145.1249
757.445	7209.15542
757.636	7277.29357
757.827	7291.74404
758.019	6983.92102
758.21	7066.6067
758.401	7058.33975
758.593	7194.69878
758.784	7227.74094
758.975	7295.87254
759.167	7120.33316
759.358	7217.41587
759.549	7165.78224
759.74	7209.15542
759.932	7066.6067
760.123	7048.00555
760.314	7215.35079
760.505	7266.97115
760.696	7012.8651
760.888	7287.61544
761.079	6946.70072
761.27	6870.16932
761.461	6959.1083
761.652	7021.13402
761.843	7031.46968
762.034	6880.51321
762.225	6983.92102
762.416	7093.47182
762.607	6731.50619
762.798	6781.18834
762.989	6820.51071
763.18	6849.47982
763.371	6897.06226
763.562	6677.66897
763.753	6694.23592
763.944	6946.70072
764.135	6592.74022
764.326	6688.02348
764.517	6603.09946
764.708	6857.75589
764.899	6764.62909
765.089	6632.10226
765.28	6685.95263
765.471	6913.60987
765.662	6615.52979
765.853	7004.59581
766.043	6431.06117
766.234	6872.23814
766.425	6497.4081
766.615	6478.75043
766.806	6569.94786
766.997	6671.45598
767.187	6356.39239
767.378	6576.16424
767.569	6677.66897
767.759	6553.36985
767.95	6495.33512
768.141	6592.74022
768.331	6621.74464
768.522	6495.33512
768.712	6383.3596
768.903	6594.81212
769.093	6422.76613
769.284	6439.35584
769.474	6304.52128
769.665	6408.24891
769.855	6404.10093
770.046	6453.87061
770.236	6254.71127
770.426	6414.47072
770.617	6410.32287
770.807	6522.28207
770.998	6229.80121
771.188	6472.53079
771.378	6221.49711
771.569	6458.01748
771.759	6171.6646
771.949	6362.61594
772.139	6424.83992
772.33	6138.43542
772.52	6146.74328
772.71	6358.46693
772.9	6325.27148
773.09	6186.20048
773.281	6279.61796
773.471	6337.72047
773.661	6013.77239
773.851	6063.64777
774.041	5980.5146
774.231	6312.82164
774.421	5974.2781
774.611	6146.74328
774.802	5986.7509
774.992	6254.71127
775.182	5886.94472
775.372	6242.25666
775.562	5924.3784
775.752	5926.45783
775.942	5730.88874
776.131	6074.03677
776.321	5907.74215
776.511	5955.5673
776.701	5903.58285
776.891	5938.93388
777.081	5816.21579
777.271	5928.53723
777.461	5845.34277
777.651	6036.63362
777.84	5641.35677
778.03	5916.06047
778.22	5920.21948
778.41	5968.04138
778.599	5828.69935
778.789	6044.94609
778.979	5651.7697
779.169	5895.26397
779.358	5849.50339
779.548	5999.22285
779.738	5880.70503
779.927	5797.48886
780.117	5672.5938
780.307	5745.45958
780.496	5449.65358
780.686	5749.62246
780.875	5699.66161
781.065	5591.36647
781.254	5574.70001
781.444	5664.26445
781.633	5464.24669
781.823	5572.6166
782.012	5580.95011
782.202	5814.13511
782.391	5476.75416
782.581	5309.91837
782.77	5297.39963
782.96	5376.67071
783.149	5213.91988
783.338	5508.01913
783.528	5236.88054
783.717	5589.28324
783.906	5418.37873
784.096	5574.70001
784.285	5178.42967
784.474	5293.22653
784.663	5441.31413
784.853	5163.8141
785.042	5209.74491
785.231	5416.29355
785.42	5241.0549
785.61	5568.44971
785.799	5128.31439
785.988	5259.83837
786.177	4887.99364
786.366	5176.3418
786.555	5172.16599
786.744	5232.70608
786.933	5126.22596
787.122	5364.15648
787.312	5124.13751
787.501	5274.44643
787.69	5190.95639
787.879	5289.05334
788.068	5305.74555
788.257	5038.49107
788.445	4864.9905
788.634	5130.4028
788.823	5044.75921
789.012	5105.34042
789.201	4921.44781
789.39	5078.18573
789.579	5025.95418
789.768	5080.27469
789.957	5057.29485
790.145	5293.22653
790.334	4883.81146
790.523	5092.80797
790.712	4856.62503
790.9	5391.26959
791.089	5000.87791
791.278	5399.61129
791.467	5122.04904
791.655	4969.52789
791.844	4996.69821
792.033	5011.32676
792.221	4664.11898
792.41	4804.3326
792.599	4582.45558
792.787	4898.4487
792.976	4860.80781
793.164	4929.81044
793.353	4867.08181
793.541	4795.96449
793.73	4615.96263
793.918	4862.89917
794.107	4569.88897
794.295	4739.47026
794.484	4720.63518
794.672	4613.8686
794.861	4791.7803
795.049	4816.88408
795.238	4712.26344
795.426	4657.83839
795.614	4590.83288
795.803	4808.51652
795.991	4653.65121
796.179	4737.37756
796.368	4697.61204
796.556	4718.54228
796.744	4507.04391
796.932	4657.83839
797.121	4444.17898
797.309	4571.98346
797.497	4234.48759
797.685	4578.2668
797.874	4542.65856
798.062	4743.65558
798.25	4559.41618
798.438	4731.09934
798.626	4435.79549
798.814	4416.93137
799.002	4345.65097
799.19	4448.37059
799.378	4284.8332
799.566	4494.47251
799.755	4303.70961
799.943	4439.98728
800.131	4347.74781
800.318	4488.18651
800.506	4322.58429
800.694	4372.9082
800.882	4032.98344
801.07	4406.45053
801.258	4255.46642
801.446	4620.15061
801.634	4280.6382
801.822	4289.02811
802.01	4259.66193
802.197	4442.08314
802.385	4381.29431
802.573	4379.19782
802.761	4144.25442
802.949	4364.52175
803.136	4303.70961
803.324	4456.75355
803.512	4339.36031
803.699	4435.79549
803.887	4398.06547
804.075	4196.72033
804.262	4412.7391
804.45	4479.80487
804.638	4064.48115
804.825	4530.08941
805.013	4519.61452
805.201	4519.61452
805.388	4209.31018
805.576	4609.68049
805.763	4500.75831
805.951	4603.39815
806.138	4469.32733
806.326	4649.46395
806.513	4320.48719
806.701	4328.87546
806.888	4226.09546
807.075	4395.96915
807.263	4265.95504
807.45	4429.50765
807.638	4372.9082
807.825	4628.52629
808.012	4335.16644
808.2	4492.3772
808.387	4242.87938
808.574	4165.24237
808.761	4289.02811
808.949	4393.87281
809.136	3976.2759
809.323	4314.19576
809.51	4289.02811
809.698	4259.66193
809.885	4020.38305
810.072	4163.14367
810.259	4163.14367
810.446	4454.65784
810.633	4240.78146
810.82	4559.41618
811.008	4234.48759
811.195	4511.2342
811.382	4234.48759
811.569	4400.16177
811.756	4330.97248
811.943	4643.18289
812.13	4301.61232
812.317	4641.08916
812.504	4272.24795
812.691	4335.16644
812.878	4400.16177
813.064	4368.71502
813.251	4330.97248
813.438	4630.62016
813.625	4402.25805
813.812	4586.64427
813.999	4301.61232
814.186	4483.99574
814.372	4184.12971
814.559	4643.18289
814.746	4140.05658
814.933	4519.61452
815.12	4268.0527
815.306	4467.23175
815.493	4318.39007
815.68	4532.18433
815.866	4041.38328
816.053	4362.42509
816.24	4377.1013
816.426	4391.77645
816.613	4307.90414
816.799	4628.52629
816.986	4249.173
817.173	4219.80114
817.359	4070.78013
817.546	4263.85736
817.732	4095.9742
817.919	4412.7391
818.105	4263.85736
818.292	4414.83524
818.478	4196.72033
818.665	4372.9082
818.851	4255.46642
819.037	4163.14367
819.224	4003.58139
819.41	4244.97727
819.597	4053.98243
819.783	4242.87938
819.969	3999.38077
820.156	4200.91703
820.342	3982.57747
820.528	4289.02811
820.714	4236.58557
820.901	4209.31018
821.087	4083.37754
821.273	4171.53834
821.459	4129.56161
821.646	4108.5701
821.832	3822.88158
822.018	4077.07893
822.204	3942.66441
822.39	4152.64985
822.576	4058.18198
822.762	4337.26339
822.948	3888.03469
823.134	4226.09546
823.32	3948.96696
823.507	4100.17292
823.693	4095.9742
823.879	4280.6382
824.065	3885.93328
824.25	4129.56161
824.436	3852.30793
824.622	4137.95763
824.808	4016.18276
824.994	4119.06612
825.18	3806.06478
825.366	4081.27802
825.552	3837.59524
825.738	4016.18276
825.923	3751.40152
826.109	4018.28292
826.295	3705.13771
826.481	3990.97929
826.667	3698.82829
826.852	3969.97414
827.038	3867.01965
827.224	4009.88217
827.409	3654.6575
827.595	3881.73039
827.781	3679.89898
827.966	3839.69712
828.152	3751.40152
828.338	3986.77842
828.523	3742.99061
828.709	4085.47703
828.894	3705.13771
829.08	4058.18198
829.266	3631.51707
829.451	3858.61308
829.637	3679.89898
829.822	3824.98359
830.008	3656.76106
830.193	3890.13609
830.378	3597.8542
830.564	3982.57747
830.749	3595.75011
830.935	3883.83184
831.12	3534.72344
831.305	3648.3467
831.491	3642.03573
831.676	3629.41329
831.861	3421.04657
832.047	3498.94197
832.232	3490.52204
832.417	3557.87332
832.602	3385.24859
832.788	3479.99671
832.973	3479.99671
833.158	3705.13771
833.343	3313.63745
833.528	3593.646
833.714	3517.88576
833.899	3698.82829
834.084	3172.46378
834.269	3446.31264
834.454	3364.18858
834.639	3608.37436
834.824	3595.75011
835.009	3578.91673
835.194	3437.8909
835.379	3726.16787
835.564	3353.65792
835.749	3578.91673
835.934	3218.82758
836.119	3368.40072
836.304	3254.64866
836.489	3244.11355
836.674	3313.63745
836.859	3330.48894
837.044	3031.21692
837.228	3359.97637
837.413	3140.84756
837.598	3026.99951
837.783	2959.51273
837.968	3355.76409
838.152	3176.679
838.337	3248.32764
838.522	3191.43175
838.707	3364.18858
838.891	3073.38758
839.076	3225.1493
839.261	3218.82758
839.445	3444.20723
839.63	3260.96952
839.815	3204.07633
839.999	2982.71306
840.184	3098.68698
840.368	3048.08593
840.553	3204.07633
840.737	3132.41596
840.922	2999.58488
841.106	2820.27364
841.291	3102.90333
841.475	2921.54468
841.66	3210.39839
841.844	2803.39198
842.029	2953.18506
842.213	2847.70445
842.397	3075.49595
842.582	2873.02308
842.766	3033.3256
842.951	2879.35241
843.135	3161.92545
843.319	2980.60401
843.504	2889.90102
843.688	2862.4739
843.872	2828.71414
844.056	2851.92436
844.241	3039.65155
844.425	2708.41647
844.609	2837.15442
844.793	2805.50224
844.977	2919.43521
845.161	2583.85334
845.346	3008.02042
845.53	2740.07798
845.714	2702.08382
845.898	2638.75093
846.082	2902.55888
846.266	2634.52833
846.45	2778.06784
846.634	2575.40683
846.818	2712.63818
847.002	2505.71593
847.186	2826.60404
847.37	2594.41121
847.554	2803.39198
847.738	2613.41461
847.922	2691.52913
848.106	2505.71593
848.29	2725.30298
848.473	2657.75199
848.657	2547.95435
848.841	2533.17143
849.025	2763.29452
849.209	2509.93998
849.392	2721.08143
849.576	2516.27597
849.76	2676.75204
849.944	2457.13615
850.127	2533.17143
850.311	2288.11952
850.495	2476.14633
850.678	2355.73393
850.862	2579.63011
851.046	2182.45305
851.229	2533.17143
851.413	2423.3381
851.596	2560.62498
851.78	2414.88816
851.964	2469.8097
852.147	2190.90717
852.331	2476.14633
852.514	2292.34571
852.698	2347.28267
852.881	2235.28905
853.065	2224.72229
853.248	2231.06237
853.431	2184.56659
853.615	2152.86259
853.798	2321.92796
853.982	2042.94183
854.165	2298.68492
854.348	2292.34571
854.532	2528.94764
854.715	2313.47608
854.898	2300.79797
855.081	2074.6518
855.265	2207.815
855.448	2000.65946
855.631	2264.87482
855.814	2116.9292
855.997	2207.815
856.181	2015.45859
856.364	2182.45305
856.547	1975.28878
856.73	2203.5881
856.913	1985.86001
857.096	2264.87482
857.279	2011.2303
857.462	2119.043
857.645	1890.71363
857.828	2184.56659
858.011	2017.57273
858.194	2180.3395
858.377	1943.57418
858.56	2119.043
858.743	2000.65946
858.926	2167.65802
859.109	2051.39797
859.292	2072.53785
859.475	1907.62938
859.658	2216.26871
859.841	1861.11025
860.023	2171.88521
860.206	1778.6388
860.389	2021.80098
860.572	1759.60601
860.755	1869.56846
860.937	1675.01235
861.12	1848.42279
861.303	1664.4378
861.486	1916.08713
861.668	1611.5641
861.851	1746.91731
862.034	1778.6388
862.216	1780.75353
862.399	1683.47195
862.581	1734.22848
862.764	1704.62072
862.947	1842.079
863.129	1744.80251
863.312	1710.9653
863.494	1628.48384
863.677	1725.76918
863.859	1645.40344
864.042	1793.44186
864.224	1562.91918
864.406	1664.4378
864.589	1554.4591
864.771	1636.94366
864.954	1493.12306
865.136	1710.9653
865.318	1603.10418
865.501	1679.24216
865.683	1495.23811
865.865	1677.12726
866.048	1480.43277
866.23	1598.87421
866.412	1400.06086
866.594	1727.88401
866.777	1334.49497
866.959	1603.10418
867.141	1452.9371
867.323	1429.67153
867.505	1408.52104
867.687	1562.91918
867.869	1353.53011
868.052	1628.48384
868.234	1484.66287
868.416	1581.95425
868.598	1326.03495
868.78	1518.50359
868.962	1340.84
869.144	1581.95425
869.326	1463.51236
869.508	1423.32638
869.69	1359.87518
869.872	1529.07877
870.054	1359.87518
870.236	1615.79405
870.417	1503.69829
870.599	1573.49424
870.781	1440.24679
870.963	1647.51838
871.145	1300.65505
871.327	1374.68039
871.508	1247.78125
871.69	1389.48565
871.872	1361.99021
872.054	1457.16721
872.235	1087.05747
872.417	1425.44143
872.599	1205.48343
872.78	1467.74247
872.962	1416.98123
873.144	1408.52104
873.325	1260.47082
873.507	1433.90163
873.689	1469.85752
873.87	1349.30007
874.052	1082.82823
874.233	1302.77003
874.415	1218.17265
874.596	1421.21133
874.778	1294.31011
874.959	1209.71316
875.141	1232.97688
875.322	1471.97257
875.503	1264.7007
875.685	1560.80416
875.866	1334.49497
876.048	1326.03495
876.229	1180.10537
876.41	1317.57495
876.592	1173.76094
876.773	1311.22997
876.954	1148.38356
877.136	1402.1759
877.317	1292.19514
877.498	1406.406
877.679	1275.27544
877.86	1480.43277
878.042	1237.20668
878.223	1442.36184
878.404	1323.91994
878.585	1370.45033
878.766	1205.48343
878.947	1529.07877
879.128	1201.25372
879.309	1347.18505
879.49	1201.25372
879.672	1298.54007
879.853	1142.0393
880.034	1302.77003
880.215	1097.63065
880.396	1440.24679
880.576	1120.89207
880.757	1357.76016
880.938	1190.6795
881.119	1307
881.3	1385.25557
881.481	1488.89297
881.662	1402.1759
881.843	1450.82205
882.023	1239.32159
882.204	1319.68995
882.385	1315.45996
882.566	1393.71573
882.747	1112.43331
882.927	1393.71573
883.108	1378.91046
883.289	1404.29095
883.469	1260.47082
883.65	1569.26422
883.831	1275.27544
884.011	1531.1938
884.192	1342.95502
884.373	1281.62031
884.553	1239.32159
884.734	1277.39039
884.914	1264.7007
885.095	1351.41509
885.275	1224.5173
885.456	1216.05777
885.636	1192.79434
885.817	1260.47082
885.997	1190.6795
886.178	1281.62031
886.358	1070.14064
886.538	1190.6795
886.719	1182.22019
886.899	1442.36184
887.08	1216.05777
887.26	1400.06086
887.44	1247.78125
887.621	1419.09628
887.801	1315.45996
887.981	1385.25557
888.161	1182.22019
888.342	1366.22027
888.522	1374.68039
888.702	1395.83077
888.882	1222.40241
889.062	1444.47689
889.242	1273.16048
889.423	1395.83077
889.603	1328.14995
889.783	1391.60069
889.963	1142.0393
890.143	1307
890.323	1163.18696
890.503	1425.44143
890.683	1328.14995
890.863	1313.34496
891.043	1243.55141
891.223	1370.45033
891.403	1203.36858
891.583	1391.60069
891.763	1230.86198
891.943	1309.11498
892.122	1046.88057
892.302	1281.62031
892.482	1087.05747
892.662	1264.7007
892.842	1171.64614
893.022	1361.99021
893.201	1106.08928
893.381	1129.35091
893.561	1163.18696
893.741	1313.34496
893.92	1264.7007
894.1	1408.52104
894.28	1218.17265
894.459	1438.13174
894.639	1154.72785
894.819	1368.33529
894.998	1103.97461
895.178	1243.55141
895.357	1171.64614
895.537	1243.55141
895.716	1070.14064
895.896	1197.02402
896.075	970.7617
896.255	1173.76094
896.434	1078.59901
896.614	1059.5678
896.793	1087.05747
896.973	1175.87575
897.152	1101.85995
897.331	1046.88057
897.511	1046.88057
897.69	1158.9574
897.87	917.90649
898.049	1046.88057
898.228	964.41884
898.407	939.04803
898.587	955.96179
898.766	1061.68236
898.945	886.19561
899.124	1002.47691
899.304	1013.04897
899.483	1205.48343
899.662	926.36301
899.841	1004.59131
900.02	1074.36982
900.199	981.33327
900.378	898.87975
900.557	1015.1634
900.737	867.16996
900.916	926.36301
901.095	827.00696
901.274	900.9938
901.453	820.66573
901.632	884.08162
901.811	774.16594
901.989	858.71433
902.168	725.55767
902.347	858.71433
902.526	753.03124
902.705	765.71194
902.884	712.87816
903.063	742.46427
903.242	664.2771
903.42	748.80442
903.599	706.53856
903.778	782.6201
903.957	681.18114
904.135	803.75619
904.314	693.85964
904.493	632.58408
904.672	799.52889
904.85	767.82543
905.029	615.68226
905.207	740.35091
905.386	731.89756
905.565	765.71194
905.743	554.42003
905.922	723.44439
906.1	524.84921
906.279	643.14812
906.457	598.78124
906.636	622.02035
906.814	531.18558
906.993	676.95506
907.171	552.30774
907.35	575.54369
907.528	512.17684
907.707	564.98169
907.885	590.33104
908.063	499.50499
908.242	427.708
908.42	465.71598
908.598	448.82293
908.777	556.53234
908.955	463.6043
909.133	512.17684
909.311	368.59479
909.49	482.61001
909.668	387.59405
909.846	503.72888
910.024	412.9285
910.202	535.4099
910.38	362.262
910.559	539.63428
910.737	486.83367
910.915	541.74649
911.093	480.4982
911.271	556.53234
911.449	520.62503
911.627	636.80966
911.805	467.82768
911.983	607.23165
912.161	495.28116
912.339	622.02035
912.517	520.62503
912.695	535.4099
912.872	486.83367
913.05	541.74649
913.228	444.59982
913.406	423.48521
913.584	448.82293
913.762	558.64466
913.939	393.92744
914.117	486.83367
914.295	398.14978
914.473	518.51296
914.65	480.4982
914.828	465.71598
915.006	495.28116
915.184	573.43126
915.361	406.59467
915.539	453.0461
915.716	455.15771
915.894	497.39307
916.072	465.71598
916.249	389.70517
916.427	368.59479
916.604	495.28116
916.782	391.8163
916.959	531.18558
917.137	539.63428
917.314	507.95283
917.492	417.15113
917.669	537.52208
917.847	345.37533
918.024	469.9394
918.201	366.48384
918.379	417.15113
918.556	381.26081
918.733	436.15378
918.911	292.61173
919.088	368.59479
919.265	389.70517
919.442	429.81942
919.62	393.92744
919.797	360.15111
919.974	377.03874
920.151	408.70593
920.328	326.37915
920.506	398.14978
920.683	345.37533
920.86	322.15797
921.037	271.50948
921.214	436.15378
921.391	398.14978
921.568	347.4861
921.745	279.95016
921.922	309.49486
922.099	372.81673
922.276	465.71598
922.453	404.48342
922.63	355.92937
922.807	263.0691
922.984	385.48296
923.161	345.37533
923.338	343.26457
923.514	351.7077
923.691	362.262
923.868	334.82172
924.045	305.27397
924.222	303.16355
924.399	385.48296
924.575	222.98148
924.752	235.63997
924.929	320.04741
925.105	341.15383
925.282	288.39113
925.459	275.72978
925.635	235.63997
925.812	309.49486
925.989	233.53017
926.165	284.17061
926.342	277.83996
926.518	241.96948
926.695	225.09118
926.871	267.28925
927.048	201.88557
927.224	225.09118
927.401	117.52244
927.577	233.53017
927.754	159.69982
927.93	250.4091
928.107	233.53017
928.283	334.82172
928.459	225.09118
928.636	265.17916
928.812	267.28925
928.988	174.4639
929.165	208.21413
929.341	185.01029
929.517	271.50948
929.693	225.09118
929.87	225.09118
930.046	136.50121
930.222	267.28925
930.398	246.18925
930.574	275.72978
930.751	197.66663
930.927	109.088
931.103	208.21413
931.279	208.21413
931.455	163.91802
931.631	237.74979
931.807	136.50121
931.983	203.99507
932.159	155.4817
932.335	185.01029
932.511	151.26366
932.687	111.19658
932.863	163.91802
933.039	64.813
933.215	216.6525
933.391	182.90097
933.566	142.82785
933.742	203.99507
933.918	170.24549
934.094	199.77609
934.27	92.22017
934.445	31.08639
934.621	100.65391
934.797	75.35377
934.973	69.02924
935.148	41.62532
935.324	94.32857
935.5	178.68239
935.675	85.8951
935.851	117.52244
936.027	62.70491
936.202	50.05688
936.378	92.22017
936.553	66.92111
936.729	136.50121
936.904	134.39237
937.08	75.35377
937.255	73.24557
937.431	-6.84884
937.606	26.87099
937.782	85.8951
937.957	98.54544
938.133	151.26366
938.308	102.7624
938.483	52.16483
938.659	79.57023
938.834	41.62532
939.009	85.8951
939.185	28.97868
939.36	5.79537
939.535	33.19413
939.71	-2.6342
939.886	41.62532
940.061	14.22533
940.236	22.65567
940.411	56.38079
940.586	31.08639
940.761	106.97945
940.937	18.44046
941.112	92.22017
941.287	33.19413
941.462	92.22017
941.637	12.11781
941.812	98.54544
941.987	62.70491
942.162	41.62532
942.337	45.84105
942.512	64.813
942.687	18.44046
942.862	31.08639
943.037	-6.84884
943.212	-11.06339
943.386	39.51749
943.561	75.35377
943.736	16.33288
943.911	64.813
944.086	22.65567
944.26	1.58054
944.435	64.813
944.61	39.51749
944.785	52.16483
944.959	16.33288
945.134	-25.81353
945.309	81.6785
945.483	47.94895
945.658	14.22533
945.833	-40.56246
946.007	62.70491
946.182	41.62532
946.357	79.57023
946.531	14.22533
946.706	90.11179
946.88	12.11781
947.055	102.7624
947.229	-6.84884
947.404	52.16483
947.578	69.02924
947.752	85.8951
947.927	75.35377
948.101	73.24557
948.276	16.33288
948.45	-4.74153
948.624	7.90283
948.799	-51.09666
948.973	20.54805
949.147	-27.92059
949.321	31.08639
949.496	64.813
949.67	20.54805
949.844	64.813
950.018	83.78679
950.193	-2.6342
950.367	85.8951
950.541	22.65567
950.715	47.94895
950.889	26.87099
951.063	-4.74153
951.237	33.19413
951.411	16.33288
951.585	5.79537
951.759	16.33288
951.933	-13.17063
952.107	-2.6342
952.281	128.06598
952.455	58.48881
952.629	66.92111
952.803	115.4138
952.977	14.22533
953.151	5.79537
953.325	39.51749
953.499	43.73317
953.672	106.97945
953.846	94.32857
954.02	90.11179
954.194	115.4138
954.368	77.46199
954.541	-40.56246
954.715	-23.70644
954.889	81.6785
955.062	54.2728
955.236	56.38079
955.41	20.54805
955.583	33.19413
955.757	-6.84884
955.93	37.40968
956.104	69.02924
956.278	73.24557
956.451	-8.95613
956.625	-36.3486
956.798	54.2728
956.972	62.70491
957.145	81.6785
957.319	5.79537
957.492	66.92111
957.665	14.22533
957.839	66.92111
958.012	7.90283
958.185	-2.6342
958.359	1.58054
958.532	111.19658
958.705	26.87099
958.879	-19.49219
959.052	83.78679
959.225	43.73317
959.398	85.8951
959.572	43.73317
959.745	16.33288
959.918	43.73317
960.091	1.58054
960.264	50.05688
960.438	98.54544
960.611	77.46199
960.784	-8.95613
960.957	123.8485
961.13	33.19413
961.303	52.16483
961.476	33.19413
961.649	22.65567
961.822	14.22533
961.995	73.24557
962.168	35.30189
962.341	142.82785
962.514	-27.92059
962.686	22.65567
962.859	77.46199
963.032	47.94895
963.205	-15.27784
963.378	41.62532
963.551	39.51749
963.723	56.38079
963.896	35.30189
964.069	73.24557
964.242	64.813
964.414	50.05688
964.587	159.69982
964.76	58.48881
964.932	28.97868
965.105	81.6785
965.278	16.33288
965.45	1.58054
965.623	-76.37618
965.795	83.78679
965.968	-51.09666
966.14	43.73317
966.313	39.51749
966.485	5.79537
966.658	73.24557
966.83	85.8951
967.003	10.01031
967.175	14.22533
967.348	52.16483
967.52	10.01031
967.692	109.088
967.865	-72.16318
968.037	47.94895
968.209	47.94895
968.382	41.62532
968.554	26.87099
968.726	56.38079
968.898	24.76332
969.071	-34.24164
969.243	58.48881
969.415	50.05688
969.587	66.92111
969.759	83.78679
969.932	-23.70644
970.104	-44.77622
970.276	-17.38502
970.448	43.73317
970.62	-27.92059
970.792	47.94895
970.964	39.51749
971.136	-17.38502
971.308	52.16483
971.48	-17.38502
971.652	52.16483
971.824	-48.98987
971.996	39.51749
972.168	-21.59933
972.339	28.97868
972.511	5.79537
972.683	102.7624
972.855	-11.06339
973.027	39.51749
973.199	35.30189
973.37	66.92111
973.542	64.813
973.714	109.088
973.886	18.44046
974.057	16.33288
974.229	22.65567
974.401	1.58054
974.572	66.92111
974.744	31.08639
974.915	69.02924
975.087	-44.77622
975.259	52.16483
975.43	-4.74153
975.602	3.68794
975.773	-59.52357
975.945	-2.6342
976.116	47.94895
976.288	-21.59933
976.459	31.08639
976.63	81.6785
976.802	-2.6342
976.973	58.48881
977.145	60.59685
977.316	106.97945
977.487	37.40968
977.659	-19.49219
977.83	16.33288
978.001	71.13739
978.172	43.73317
978.344	-21.59933
978.515	41.62532
978.686	14.22533
978.857	77.46199
979.028	24.76332
979.2	-13.17063
979.371	-57.41689
979.542	20.54805
979.713	-46.88306
979.884	24.76332
980.055	90.11179
980.226	75.35377
980.397	18.44046
980.568	-15.27784
980.739	14.22533
980.91	-11.06339
981.081	47.94895
981.252	7.90283
981.423	81.6785
981.594	33.19413
981.765	43.73317
981.936	10.01031
982.106	-15.27784
982.277	52.16483
982.448	31.08639
982.619	-0.52684
982.79	28.97868
982.96	-8.95613
983.131	47.94895
983.302	64.813
983.472	41.62532
983.643	56.38079
983.814	14.22533
983.984	43.73317
984.155	106.97945
984.326	73.24557
984.496	47.94895
984.667	41.62532
984.837	-13.17063
985.008	62.70491
985.178	7.90283
985.349	12.11781
985.519	50.05688
985.69	18.44046
985.86	28.97868
986.031	-2.6342
986.201	62.70491
986.371	-34.24164
986.542	18.44046
986.712	33.19413
986.882	-8.95613
987.053	1.58054
987.223	14.22533
987.393	18.44046
987.563	-2.6342
987.734	14.22533
987.904	3.68794
988.074	24.76332
988.244	3.68794
988.414	3.68794
988.585	-15.27784
988.755	-36.3486
988.925	28.97868
989.095	12.11781
989.265	-19.49219
989.435	14.22533
989.605	-63.73688
989.775	100.65391
989.945	-11.06339
990.115	33.19413
990.285	35.30189
990.455	-2.6342
990.625	-30.02763
990.795	33.19413
990.965	1.58054
991.134	111.19658
991.304	-19.49219
991.474	-0.52684
991.644	1.58054
991.814	45.84105
991.984	50.05688
992.153	20.54805
992.323	54.2728
992.493	39.51749
992.662	14.22533
992.832	96.437
993.002	83.78679
993.171	47.94895
993.341	-27.92059
993.511	-23.70644
993.68	39.51749
993.85	43.73317
994.019	14.22533
994.189	5.79537
994.358	-8.95613
994.528	-8.95613
994.697	75.35377
994.867	31.08639
995.036	22.65567
995.206	-15.27784
995.375	22.65567
995.544	47.94895
995.714	5.79537
995.883	45.84105
996.052	-2.6342
996.222	-13.17063
996.391	-8.95613
996.56	-19.49219
996.73	-15.27784
996.899	85.8951
997.068	-4.74153
997.237	-48.98987
997.406	54.2728
997.576	22.65567
997.745	-2.6342
997.914	47.94895
998.083	1.58054
998.252	50.05688
998.421	-42.66935
998.59	50.05688
998.759	10.01031
998.928	-40.56246
999.097	-0.52684
999.266	-25.81353
999.435	50.05688
999.604	39.51749
999.773	-0.52684
999.942	85.8951
1000.111	31.08639
1000.28	22.65567
1000.448	-6.84884
1000.617	47.94895
1000.786	31.08639
1000.955	20.54805
1001.124	-48.98987
1001.292	-15.27784
1001.461	54.2728
1001.63	14.22533
1001.798	20.54805
1001.967	-19.49219
1002.136	1.58054
1002.304	45.84105
1002.473	31.08639
1002.642	50.05688
1002.81	-40.56246
1002.979	-23.70644
1003.147	39.51749
1003.316	22.65567
1003.484	-21.59933
1003.653	5.79537
1003.821	22.65567
1003.99	14.22533
1004.158	-2.6342
1004.327	58.48881
1004.495	1.58054
1004.663	43.73317
1004.832	16.33288
1005	18.44046
1005.168	52.16483
1005.337	-78.48264
1005.505	1.58054
1005.673	-2.6342
1005.842	-0.52684
1006.01	10.01031
1006.178	-19.49219
1006.346	-11.06339
1006.514	39.51749
1006.683	73.24557
1006.851	-36.3486
1007.019	77.46199
1007.187	-4.74153
1007.355	-4.74153
1007.523	1.58054
1007.691	56.38079
1007.859	-61.63024
1008.027	66.92111
1008.195	-2.6342
1008.363	-36.3486
1008.531	-27.92059
1008.699	-17.38502
1008.867	73.24557
1009.035	52.16483
1009.203	24.76332
1009.37	10.01031
1009.538	-34.24164
1009.706	58.48881
1009.874	47.94895
1010.042	64.813
1010.209	16.33288
1010.377	31.08639
1010.545	12.11781
1010.713	79.57023
1010.88	56.38079
1011.048	31.08639
1011.216	60.59685
1011.383	16.33288
1011.551	3.68794
1011.718	10.01031
1011.886	52.16483
1012.054	-6.84884
1012.221	28.97868
1012.389	3.68794
1012.556	-61.63024
1012.724	-11.06339
1012.891	-34.24164
1013.058	-8.95613
1013.226	24.76332
1013.393	14.22533
1013.561	14.22533
1013.728	64.813
1013.895	14.22533
1014.063	35.30189
1014.23	41.62532
1014.397	-91.12085
1014.565	33.19413
1014.732	-59.52357
1014.899	39.51749
1015.066	-34.24164
1015.233	-15.27784
1015.401	5.79537
1015.568	-51.09666
1015.735	-32.13465
1015.902	60.59685
1016.069	20.54805
1016.236	39.51749
1016.403	24.76332
1016.57	77.46199
1016.737	-11.06339
1016.904	7.90283
1017.071	81.6785
1017.238	-32.13465
1017.405	31.08639
1017.572	54.2728
1017.739	-34.24164
1017.906	60.59685
1018.073	-15.27784
1018.24	-42.66935
1018.407	66.92111
1018.573	-15.27784
1018.74	56.38079
1018.907	5.79537
1019.074	-36.3486
1019.241	-2.6342
1019.407	-19.49219
1019.574	-21.59933
1019.741	10.01031
1019.907	-21.59933
1020.074	94.32857
1020.241	16.33288
1020.407	-15.27784
1020.574	18.44046
1020.74	85.8951
1020.907	-44.77622
1021.073	-6.84884
1021.24	3.68794
1021.406	-34.24164
1021.573	62.70491
1021.739	16.33288
1021.906	-13.17063
1022.072	26.87099
1022.239	-27.92059
1022.405	-2.6342
1022.571	58.48881
1022.738	-27.92059
1022.904	-55.31017
1023.07	3.68794
1023.237	-25.81353
1023.403	56.38079
1023.569	-30.02763
1023.735	39.51749
1023.902	-74.26969
1024.068	18.44046
1024.234	-48.98987
1024.4	20.54805
1024.566	62.70491
1024.732	-15.27784
1024.898	-48.98987
1025.065	-8.95613
1025.231	73.24557
1025.397	75.35377
1025.563	-11.06339
1025.729	20.54805
1025.895	73.24557
1026.061	43.73317
1026.227	-57.41689
1026.392	-48.98987
1026.558	45.84105
1026.724	5.79537
1026.89	-32.13465
1027.056	22.65567
1027.222	22.65567
1027.388	-11.06339
1027.553	-103.75813
1027.719	56.38079
1027.885	18.44046
1028.051	-38.45555
1028.216	-11.06339
1028.382	18.44046
1028.548	-11.06339
1028.713	-105.86425
1028.879	-120.60637
1029.045	31.08639
1029.21	28.97868
1029.376	7.90283
1029.541	47.94895
1029.707	39.51749
1029.873	-34.24164
1030.038	12.11781
1030.204	20.54805
1030.369	-21.59933
1030.534	-27.92059
1030.7	-23.70644
1030.865	14.22533
1031.031	26.87099
1031.196	-23.70644
1031.361	28.97868
1031.527	-32.13465
1031.692	-57.41689
1031.857	-48.98987
1032.023	64.813
1032.188	14.22533
1032.353	5.79537
1032.518	47.94895
1032.684	-42.66935
1032.849	26.87099
1033.014	-95.33338
1033.179	-15.27784
1033.344	37.40968
1033.509	12.11781
1033.674	35.30189
1033.839	64.813
1034.004	-19.49219
1034.17	26.87099
1034.335	-2.6342
1034.5	22.65567
1034.664	5.79537
1034.829	-21.59933
1034.994	-19.49219
1035.159	31.08639
1035.324	31.08639
1035.489	-25.81353
1035.654	10.01031
1035.819	-11.06339
1035.984	-2.6342
1036.148	43.73317
1036.313	-86.90822
1036.478	7.90283
1036.643	-80.58907
1036.807	1.58054
1036.972	-63.73688
1037.137	-44.77622
1037.301	10.01031
1037.466	-15.27784
1037.631	-11.06339
1037.795	24.76332
1037.96	47.94895
1038.124	54.2728
1038.289	10.01031
1038.454	-2.6342
1038.618	-17.38502
1038.783	58.48881
1038.947	-34.24164
1039.111	1.58054
1039.276	-15.27784
1039.44	-23.70644
1039.605	73.24557
1039.769	60.59685
1039.933	20.54805
1040.098	22.65567
1040.262	-40.56246
1040.426	-0.52684
1040.591	-32.13465
1040.755	-19.49219
1040.919	14.22533
1041.083	-15.27784
1041.248	-11.06339
1041.412	54.2728
1041.576	33.19413
1041.74	-15.27784
1041.904	50.05688
1042.068	10.01031
1042.232	16.33288
1042.397	18.44046
1042.561	37.40968
1042.725	-46.88306
1042.889	-11.06339
1043.053	-25.81353
1043.217	-53.20343
1043.381	39.51749
1043.544	39.51749
1043.708	1.58054
1043.872	37.40968
1044.036	-21.59933
1044.2	-8.95613
1044.364	69.02924
1044.528	-70.05664
1044.691	-44.77622
1044.855	-6.84884
1045.019	-40.56246
1045.183	85.8951
1045.346	24.76332
1045.51	1.58054
1045.674	60.59685
1045.837	-15.27784
1046.001	-32.13465
1046.165	5.79537
1046.328	50.05688
1046.492	-2.6342
1046.655	24.76332
1046.819	14.22533
1046.983	-4.74153
1047.146	-23.70644
1047.31	-19.49219
1047.473	20.54805
1047.636	5.79537
1047.8	56.38079
1047.963	-42.66935
1048.127	-42.66935
1048.29	-76.37618
