Data from Scatter_Coeff_Baseline_USB4F045381__16__0016.txt Node

Date: Thu Feb 13 19:18:29 EST 2025
User: mmckonesweet
Spectrometer: USB4F04538
Trigger mode: 4
Integration Time (sec): 2.400000E-3
Scans to average: 1
Electric dark correction enabled: true
Nonlinearity correction enabled: true
Boxcar width: 0
XAxis mode: Wavelengths
Number of Pixels in Spectrum: 3648
>>>>>Begin Spectral Data<<<<<
345.52	-10.36097
345.736	-10.36097
345.952	-10.36097
346.168	14.92785
346.384	-10.36097
346.6	36.00449
346.816	61.29953
347.032	-4.03909
347.248	-84.09974
347.464	52.86748
347.68	6.49786
347.896	-56.71465
348.112	-31.43231
348.328	4.39042
348.544	59.19149
348.76	-8.2537
348.975	-35.64629
349.191	46.54368
349.407	-14.57544
349.623	48.65159
349.839	82.38126
350.055	-35.64629
350.27	-6.14641
350.486	-1.93175
350.702	27.57355
350.918	10.7128
351.133	-16.68263
351.349	29.68125
351.565	27.57355
351.781	-58.82135
351.996	-6.14641
352.212	-6.14641
352.428	27.57355
352.644	82.38126
352.859	-52.50118
353.075	17.0354
353.291	31.78897
353.506	23.35822
353.722	73.9483
353.938	0.17561
354.153	-23.00407
354.369	-46.18078
354.584	6.49786
354.8	8.60532
355.016	27.57355
355.231	65.5157
355.447	63.4076
355.662	-16.68263
355.878	-81.99334
356.093	-52.50118
356.309	-58.82135
356.524	-25.11117
356.74	-10.36097
356.955	-69.35446
357.171	25.46587
357.386	-6.14641
357.602	-6.14641
357.817	10.7128
358.033	-25.11117
358.248	-20.89695
358.464	-8.2537
358.679	12.82031
358.895	8.60532
359.11	-41.96706
359.325	23.35822
359.541	10.7128
359.756	-52.50118
359.972	-18.7898
360.187	23.35822
360.402	-6.14641
360.618	29.68125
360.833	-1.93175
361.048	-6.14641
361.264	-23.00407
361.479	17.0354
361.694	48.65159
361.909	-60.92802
362.125	-56.71465
362.34	-1.93175
362.555	36.00449
362.77	12.82031
362.986	-10.36097
363.201	40.22009
363.416	-6.14641
363.631	57.08346
363.847	10.7128
364.062	-35.64629
364.277	-35.64629
364.492	-33.53931
364.707	-18.7898
364.922	23.35822
365.138	2.283
365.353	10.7128
365.568	-33.53931
365.783	2.283
365.998	-39.86016
366.213	-33.53931
366.428	90.81458
366.643	67.62381
366.858	6.49786
367.073	2.283
367.288	-41.96706
367.503	-56.71465
367.718	-25.11117
367.933	10.7128
368.148	-25.11117
368.363	4.39042
368.578	-16.68263
368.793	48.65159
369.008	-23.00407
369.223	76.05651
369.438	-1.93175
369.653	8.60532
369.868	42.32793
370.083	38.11228
370.298	-75.67402
370.513	-6.14641
370.728	14.92785
370.943	27.57355
371.157	65.5157
371.372	-79.88693
371.587	-4.03909
371.802	-10.36097
372.017	-6.14641
372.232	-6.14641
372.446	38.11228
372.661	-8.2537
372.876	27.57355
373.091	27.57355
373.306	25.46587
373.52	12.82031
373.735	8.60532
373.95	8.60532
374.165	-12.46822
374.379	-10.36097
374.594	0.17561
374.809	17.0354
375.023	-77.78048
375.238	-8.2537
375.453	-44.07393
375.667	10.7128
375.882	38.11228
376.097	33.89672
376.311	21.25059
376.526	-10.36097
376.741	-48.28761
376.955	57.08346
377.17	0.17561
377.384	69.73195
377.599	-29.32529
377.813	17.0354
378.028	27.57355
378.242	-14.57544
378.457	-6.14641
378.672	-4.03909
378.886	46.54368
379.101	-44.07393
379.315	-16.68263
379.53	-37.75323
379.744	-14.57544
379.958	42.32793
380.173	-1.93175
380.387	-33.53931
380.602	-56.71465
380.816	27.57355
381.031	-44.07393
381.245	4.39042
381.459	0.17561
381.674	23.35822
381.888	-35.64629
382.103	31.78897
382.317	0.17561
382.531	-18.7898
382.746	31.78897
382.96	-20.89695
383.174	40.22009
383.388	19.14299
383.603	19.14299
383.817	14.92785
384.031	31.78897
384.246	-37.75323
384.46	19.14299
384.674	8.60532
384.888	27.57355
385.103	-10.36097
385.317	-1.93175
385.531	73.9483
385.745	57.08346
385.959	36.00449
386.174	-1.93175
386.388	23.35822
386.602	-10.36097
386.816	-16.68263
387.03	-77.78048
387.244	-1.93175
387.458	19.14299
387.672	90.81458
387.887	-33.53931
388.101	-1.93175
388.315	2.283
388.529	44.4358
388.743	-48.28761
388.957	82.38126
389.171	-79.88693
389.385	31.78897
389.599	-52.50118
389.813	23.35822
390.027	-37.75323
390.241	-52.50118
390.455	59.19149
390.669	-10.36097
390.883	-39.86016
391.097	27.57355
391.311	-1.93175
391.525	-4.03909
391.738	-35.64629
391.952	-29.32529
392.166	-41.96706
392.38	-52.50118
392.594	27.57355
392.808	-12.46822
393.022	-52.50118
393.236	19.14299
393.449	61.29953
393.663	38.11228
393.877	4.39042
394.091	23.35822
394.305	-92.52504
394.518	-18.7898
394.732	0.17561
394.946	-27.21824
395.16	23.35822
395.373	40.22009
395.587	4.39042
395.801	14.92785
396.015	25.46587
396.228	-50.3944
396.442	-27.21824
396.656	40.22009
396.869	2.283
397.083	-16.68263
397.297	4.39042
397.51	50.75953
397.724	-44.07393
397.938	-10.36097
398.151	-52.50118
398.365	31.78897
398.578	-1.93175
398.792	-52.50118
399.005	-14.57544
399.219	-31.43231
399.433	-25.11117
399.646	-20.89695
399.86	50.75953
400.073	-12.46822
400.287	-39.86016
400.5	-39.86016
400.714	57.08346
400.927	-1.93175
401.141	-29.32529
401.354	46.54368
401.567	-1.93175
401.781	52.86748
401.994	19.14299
402.208	57.08346
402.421	-52.50118
402.635	46.54368
402.848	-14.57544
403.061	31.78897
403.275	4.39042
403.488	57.08346
403.701	-35.64629
403.915	-35.64629
404.128	-52.50118
404.341	6.49786
404.555	17.0354
404.768	-39.86016
404.981	-6.14641
405.195	14.92785
405.408	48.65159
405.621	-14.57544
405.834	42.32793
406.048	42.32793
406.261	78.16474
406.474	6.49786
406.687	-27.21824
406.9	33.89672
407.114	-12.46822
407.327	6.49786
407.54	-48.28761
407.753	-10.36097
407.966	-48.28761
408.179	46.54368
408.392	61.29953
408.605	10.7128
408.819	8.60532
409.032	14.92785
409.245	14.92785
409.458	8.60532
409.671	31.78897
409.884	27.57355
410.097	14.92785
410.31	4.39042
410.523	50.75953
410.736	33.89672
410.949	17.0354
411.162	19.14299
411.375	59.19149
411.588	2.283
411.801	59.19149
412.014	17.0354
412.227	-35.64629
412.44	52.86748
412.653	61.29953
412.865	-50.3944
413.078	-10.36097
413.291	52.86748
413.504	-18.7898
413.717	40.22009
413.93	-8.2537
414.143	-12.46822
414.356	-10.36097
414.568	-1.93175
414.781	38.11228
414.994	-37.75323
415.207	-10.36097
415.42	6.49786
415.632	-60.92802
415.845	31.78897
416.058	12.82031
416.271	-67.24789
416.483	-16.68263
416.696	78.16474
416.909	-35.64629
417.121	-48.28761
417.334	-14.57544
417.547	-10.36097
417.759	-37.75323
417.972	-6.14641
418.185	0.17561
418.397	44.4358
418.61	-44.07393
418.823	14.92785
419.035	-27.21824
419.248	31.78897
419.46	-25.11117
419.673	23.35822
419.885	40.22009
420.098	-23.00407
420.311	0.17561
420.523	-65.14129
420.736	2.283
420.948	0.17561
421.161	57.08346
421.373	-52.50118
421.586	-23.00407
421.798	23.35822
422.01	48.65159
422.223	27.57355
422.435	-8.2537
422.648	52.86748
422.86	0.17561
423.073	73.9483
423.285	40.22009
423.497	17.0354
423.71	-14.57544
423.922	-25.11117
424.134	10.7128
424.347	4.39042
424.559	-58.82135
424.771	36.00449
424.984	12.82031
425.196	-31.43231
425.408	36.00449
425.621	17.0354
425.833	33.89672
426.045	44.4358
426.257	-44.07393
426.47	14.92785
426.682	0.17561
426.894	54.97546
427.106	-4.03909
427.318	-10.36097
427.531	-50.3944
427.743	-23.00407
427.955	-8.2537
428.167	50.75953
428.379	57.08346
428.591	-20.89695
428.804	21.25059
429.016	-86.2061
429.228	21.25059
429.44	17.0354
429.652	-8.2537
429.864	-10.36097
430.076	10.7128
430.288	-16.68263
430.5	23.35822
430.712	10.7128
430.924	36.00449
431.136	17.0354
431.348	-31.43231
431.56	27.57355
431.772	-23.00407
431.984	57.08346
432.196	103.46523
432.408	-81.99334
432.62	10.7128
432.832	27.57355
433.044	67.62381
433.256	33.89672
433.468	50.75953
433.679	4.39042
433.891	6.49786
434.103	57.08346
434.315	8.60532
434.527	-18.7898
434.739	4.39042
434.95	-1.93175
435.162	14.92785
435.374	-29.32529
435.586	-1.93175
435.798	-69.35446
436.009	14.92785
436.221	-35.64629
436.433	-41.96706
436.645	40.22009
436.856	-52.50118
437.068	-23.00407
437.28	-16.68263
437.491	14.92785
437.703	-50.3944
437.915	92.92297
438.126	-25.11117
438.338	-16.68263
438.55	-75.67402
438.761	2.283
438.973	-31.43231
439.184	-16.68263
439.396	-14.57544
439.608	-25.11117
439.819	-10.36097
440.031	-1.93175
440.242	-25.11117
440.454	29.68125
440.665	36.00449
440.877	40.22009
441.088	-44.07393
441.3	-27.21824
441.511	19.14299
441.723	84.48956
441.934	31.78897
442.146	-44.07393
442.357	17.0354
442.569	0.17561
442.78	36.00449
442.991	29.68125
443.203	10.7128
443.414	-10.36097
443.626	10.7128
443.837	19.14299
444.048	-27.21824
444.26	14.92785
444.471	-10.36097
444.682	-8.2537
444.894	0.17561
445.105	-4.03909
445.316	-4.03909
445.528	-16.68263
445.739	-16.68263
445.95	-4.03909
446.161	65.5157
446.373	23.35822
446.584	42.32793
446.795	0.17561
447.006	90.81458
447.217	-6.14641
447.429	-33.53931
447.64	-4.03909
447.851	-8.2537
448.062	6.49786
448.273	-27.21824
448.484	27.57355
448.695	-16.68263
448.907	-58.82135
449.118	-10.36097
449.329	-33.53931
449.54	14.92785
449.751	-8.2537
449.962	27.57355
450.173	6.49786
450.384	-18.7898
450.595	82.38126
450.806	17.0354
451.017	8.60532
451.228	12.82031
451.439	52.86748
451.65	46.54368
451.861	2.283
452.072	50.75953
452.283	-23.00407
452.494	27.57355
452.705	31.78897
452.915	-8.2537
453.126	42.32793
453.337	-18.7898
453.548	0.17561
453.759	2.283
453.97	38.11228
454.181	-23.00407
454.391	40.22009
454.602	-60.92802
454.813	-1.93175
455.024	143.53082
455.235	0.17561
455.445	-10.36097
455.656	-6.14641
455.867	6.49786
456.078	59.19149
456.288	44.4358
456.499	-1.93175
456.71	6.49786
456.921	-44.07393
457.131	6.49786
457.342	69.73195
457.553	-16.68263
457.763	36.00449
457.974	27.57355
458.184	14.92785
458.395	-44.07393
458.606	6.49786
458.816	19.14299
459.027	-52.50118
459.237	12.82031
459.448	-10.36097
459.659	-35.64629
459.869	40.22009
460.08	4.39042
460.29	57.08346
460.501	23.35822
460.711	-35.64629
460.922	40.22009
461.132	61.29953
461.343	12.82031
461.553	-10.36097
461.764	-12.46822
461.974	76.05651
462.184	-27.21824
462.395	-27.21824
462.605	-27.21824
462.816	71.84011
463.026	8.60532
463.236	-41.96706
463.447	14.92785
463.657	54.97546
463.867	92.92297
464.078	31.78897
464.288	-12.46822
464.498	33.89672
464.709	-44.07393
464.919	-31.43231
465.129	48.65159
465.339	-44.07393
465.55	61.29953
465.76	36.00449
465.97	6.49786
466.18	12.82031
466.391	29.68125
466.601	10.7128
466.811	2.283
467.021	-1.93175
467.231	14.92785
467.441	38.11228
467.651	17.0354
467.862	-23.00407
468.072	-27.21824
468.282	2.283
468.492	17.0354
468.702	42.32793
468.912	0.17561
469.122	14.92785
469.332	-16.68263
469.542	-39.86016
469.752	27.57355
469.962	8.60532
470.172	-20.89695
470.382	14.92785
470.592	-73.56752
470.802	-14.57544
471.012	-44.07393
471.222	48.65159
471.432	-25.11117
471.642	2.283
471.852	-10.36097
472.062	-50.3944
472.272	10.7128
472.482	6.49786
472.691	-39.86016
472.901	48.65159
473.111	-39.86016
473.321	31.78897
473.531	48.65159
473.741	-1.93175
473.95	-27.21824
474.16	80.27299
474.37	90.81458
474.58	19.14299
474.79	2.283
474.999	57.08346
475.209	-35.64629
475.419	-27.21824
475.628	-33.53931
475.838	-20.89695
476.048	23.35822
476.258	-52.50118
476.467	-39.86016
476.677	-14.57544
476.886	-6.14641
477.096	17.0354
477.306	14.92785
477.515	-23.00407
477.725	25.46587
477.935	25.46587
478.144	48.65159
478.354	44.4358
478.563	-12.46822
478.773	36.00449
478.982	36.00449
479.192	6.49786
479.401	12.82031
479.611	14.92785
479.82	33.89672
480.03	14.92785
480.239	54.97546
480.449	31.78897
480.658	-4.03909
480.868	97.13981
481.077	23.35822
481.287	-27.21824
481.496	-10.36097
481.705	-41.96706
481.915	-44.07393
482.124	25.46587
482.333	48.65159
482.543	-27.21824
482.752	-33.53931
482.961	0.17561
483.171	25.46587
483.38	4.39042
483.589	61.29953
483.799	46.54368
484.008	36.00449
484.217	-35.64629
484.426	-39.86016
484.636	50.75953
484.845	2.283
485.054	48.65159
485.263	33.89672
485.472	27.57355
485.682	-63.03467
485.891	-60.92802
486.1	17.0354
486.309	-39.86016
486.518	-10.36097
486.727	-18.7898
486.936	65.5157
487.146	4.39042
487.355	44.4358
487.564	6.49786
487.773	29.68125
487.982	-16.68263
488.191	-6.14641
488.4	40.22009
488.609	-33.53931
488.818	-14.57544
489.027	8.60532
489.236	0.17561
489.445	14.92785
489.654	-20.89695
489.863	-6.14641
490.072	-18.7898
490.281	-29.32529
490.49	-10.36097
490.698	-35.64629
490.907	19.14299
491.116	-18.7898
491.325	-4.03909
491.534	-44.07393
491.743	-20.89695
491.952	-16.68263
492.16	4.39042
492.369	-46.18078
492.578	31.78897
492.787	-50.3944
492.996	42.32793
493.204	6.49786
493.413	14.92785
493.622	73.9483
493.831	2.283
494.039	-6.14641
494.248	-18.7898
494.457	57.08346
494.665	10.7128
494.874	-10.36097
495.083	-44.07393
495.291	-20.89695
495.5	10.7128
495.709	44.4358
495.917	-16.68263
496.126	-14.57544
496.335	-65.14129
496.543	-52.50118
496.752	23.35822
496.96	-16.68263
497.169	8.60532
497.377	-35.64629
497.586	-10.36097
497.794	33.89672
498.003	73.9483
498.211	12.82031
498.42	23.35822
498.628	40.22009
498.837	67.62381
499.045	14.92785
499.254	50.75953
499.462	31.78897
499.671	-37.75323
499.879	57.08346
500.087	-23.00407
500.296	-14.57544
500.504	-37.75323
500.713	40.22009
500.921	-8.2537
501.129	-56.71465
501.338	14.92785
501.546	-84.09974
501.754	54.97546
501.962	31.78897
502.171	48.65159
502.379	17.0354
502.587	0.17561
502.795	27.57355
503.004	-27.21824
503.212	23.35822
503.42	10.7128
503.628	-37.75323
503.837	-10.36097
504.045	-14.57544
504.253	25.46587
504.461	-35.64629
504.669	-31.43231
504.877	-39.86016
505.085	36.00449
505.294	23.35822
505.502	-33.53931
505.71	-48.28761
505.918	57.08346
506.126	2.283
506.334	-16.68263
506.542	-6.14641
506.75	-29.32529
506.958	6.49786
507.166	44.4358
507.374	31.78897
507.582	-1.93175
507.79	-52.50118
507.998	2.283
508.206	31.78897
508.414	-50.3944
508.622	25.46587
508.83	19.14299
509.037	-18.7898
509.245	-58.82135
509.453	12.82031
509.661	48.65159
509.869	-58.82135
510.077	-44.07393
510.285	126.66015
510.492	59.19149
510.7	-31.43231
510.908	73.9483
511.116	-33.53931
511.324	8.60532
511.531	57.08346
511.739	44.4358
511.947	12.82031
512.155	-41.96706
512.362	-54.60793
512.57	38.11228
512.778	-1.93175
512.985	57.08346
513.193	-107.26832
513.401	-52.50118
513.608	33.89672
513.816	42.32793
514.024	33.89672
514.231	-35.64629
514.439	-12.46822
514.646	8.60532
514.854	-33.53931
515.061	29.68125
515.269	8.60532
515.477	6.49786
515.684	40.22009
515.892	-6.14641
516.099	31.78897
516.307	8.60532
516.514	-48.28761
516.722	57.08346
516.929	101.35674
517.136	-12.46822
517.344	-23.00407
517.551	38.11228
517.759	27.57355
517.966	12.82031
518.173	48.65159
518.381	40.22009
518.588	17.0354
518.796	-50.3944
519.003	57.08346
519.21	23.35822
519.418	23.35822
519.625	23.35822
519.832	57.08346
520.039	-90.41875
520.247	25.46587
520.454	-6.14641
520.661	14.92785
520.868	67.62381
521.076	-37.75323
521.283	2.283
521.49	-10.36097
521.697	-31.43231
521.904	44.4358
522.112	-33.53931
522.319	36.00449
522.526	-27.21824
522.733	14.92785
522.94	63.4076
523.147	-8.2537
523.354	19.14299
523.561	-8.2537
523.768	-18.7898
523.975	-23.00407
524.183	25.46587
524.39	31.78897
524.597	-1.93175
524.804	82.38126
525.011	44.4358
525.218	23.35822
525.425	17.0354
525.632	-31.43231
525.838	27.57355
526.045	57.08346
526.252	36.00449
526.459	29.68125
526.666	-25.11117
526.873	48.65159
527.08	-39.86016
527.287	-29.32529
527.494	23.35822
527.701	-90.41875
527.907	-29.32529
528.114	-29.32529
528.321	40.22009
528.528	44.4358
528.735	36.00449
528.941	17.0354
529.148	40.22009
529.355	124.55141
529.562	-18.7898
529.768	42.32793
529.975	6.49786
530.182	52.86748
530.388	0.17561
530.595	-6.14641
530.802	-60.92802
531.008	-44.07393
531.215	48.65159
531.422	-86.2061
531.628	-33.53931
531.835	-86.2061
532.042	95.03138
532.248	2.283
532.455	44.4358
532.661	-65.14129
532.868	76.05651
533.074	95.03138
533.281	8.60532
533.487	44.4358
533.694	-48.28761
533.9	21.25059
534.107	-44.07393
534.313	27.57355
534.52	-14.57544
534.726	-6.14641
534.933	-25.11117
535.139	-18.7898
535.345	-8.2537
535.552	50.75953
535.758	-14.57544
535.965	-16.68263
536.171	-69.35446
536.377	57.08346
536.584	0.17561
536.79	-1.93175
536.996	-4.03909
537.203	-77.78048
537.409	-69.35446
537.615	65.5157
537.821	65.5157
538.028	25.46587
538.234	-33.53931
538.44	84.48956
538.646	8.60532
538.853	86.59788
539.059	-60.92802
539.265	0.17561
539.471	21.25059
539.677	-18.7898
539.883	57.08346
540.09	48.65159
540.296	17.0354
540.502	-35.64629
540.708	-14.57544
540.914	-39.86016
541.12	-14.57544
541.326	-69.35446
541.532	65.5157
541.738	38.11228
541.944	25.46587
542.15	23.35822
542.356	14.92785
542.562	-8.2537
542.768	40.22009
542.974	-14.57544
543.18	57.08346
543.386	-25.11117
543.592	52.86748
543.798	-14.57544
544.004	-6.14641
544.21	40.22009
544.415	23.35822
544.621	-6.14641
544.827	-23.00407
545.033	17.0354
545.239	-44.07393
545.445	38.11228
545.651	73.9483
545.856	-27.21824
546.062	50.75953
546.268	10.7128
546.474	-12.46822
546.679	4.39042
546.885	-4.03909
547.091	-60.92802
547.297	12.82031
547.502	14.92785
547.708	65.5157
547.914	-6.14641
548.119	-16.68263
548.325	-10.36097
548.531	65.5157
548.736	-58.82135
548.942	-75.67402
549.147	-18.7898
549.353	31.78897
549.559	33.89672
549.764	-81.99334
549.97	17.0354
550.175	-25.11117
550.381	27.57355
550.586	-27.21824
550.792	31.78897
550.997	-1.93175
551.203	-35.64629
551.408	-1.93175
551.614	52.86748
551.819	59.19149
552.025	-25.11117
552.23	57.08346
552.435	101.35674
552.641	-39.86016
552.846	-29.32529
553.052	-27.21824
553.257	-46.18078
553.462	6.49786
553.668	-65.14129
553.873	31.78897
554.078	38.11228
554.283	17.0354
554.489	-18.7898
554.694	31.78897
554.899	-48.28761
555.105	-46.18078
555.31	23.35822
555.515	14.92785
555.72	44.4358
555.925	23.35822
556.131	99.24826
556.336	-4.03909
556.541	-25.11117
556.746	-18.7898
556.951	-14.57544
557.156	4.39042
557.361	-35.64629
557.567	-25.11117
557.772	-20.89695
557.977	33.89672
558.182	40.22009
558.387	27.57355
558.592	-33.53931
558.797	-18.7898
559.002	17.0354
559.207	21.25059
559.412	33.89672
559.617	54.97546
559.822	10.7128
560.027	14.92785
560.232	-37.75323
560.437	6.49786
560.642	36.00449
560.847	-54.60793
561.051	-18.7898
561.256	12.82031
561.461	-25.11117
561.666	-14.57544
561.871	-41.96706
562.076	-50.3944
562.281	-20.89695
562.485	54.97546
562.69	-44.07393
562.895	-23.00407
563.1	-39.86016
563.305	-44.07393
563.509	-1.93175
563.714	40.22009
563.919	-1.93175
564.123	23.35822
564.328	46.54368
564.533	27.57355
564.737	-27.21824
564.942	-1.93175
565.147	2.283
565.351	27.57355
565.556	31.78897
565.761	17.0354
565.965	29.68125
566.17	-35.64629
566.374	25.46587
566.579	31.78897
566.784	-31.43231
566.988	-46.18078
567.193	-90.41875
567.397	57.08346
567.602	27.57355
567.806	38.11228
568.011	33.89672
568.215	23.35822
568.42	65.5157
568.624	57.08346
568.828	-16.68263
569.033	80.27299
569.237	27.57355
569.442	-1.93175
569.646	44.4358
569.85	-10.36097
570.055	54.97546
570.259	23.35822
570.463	-56.71465
570.668	10.7128
570.872	6.49786
571.076	42.32793
571.281	-29.32529
571.485	69.73195
571.689	2.283
571.893	40.22009
572.098	-86.2061
572.302	2.283
572.506	69.73195
572.71	-18.7898
572.914	-8.2537
573.119	-44.07393
573.323	44.4358
573.527	44.4358
573.731	-4.03909
573.935	33.89672
574.139	4.39042
574.343	69.73195
574.547	-119.90439
574.751	-10.36097
574.955	-6.14641
575.159	-31.43231
575.364	27.57355
575.568	40.22009
575.772	-67.24789
575.976	-10.36097
576.18	-4.03909
576.383	38.11228
576.587	31.78897
576.791	10.7128
576.995	-20.89695
577.199	-50.3944
577.403	10.7128
577.607	-12.46822
577.811	0.17561
578.015	-23.00407
578.219	-27.21824
578.422	6.49786
578.626	33.89672
578.83	-20.89695
579.034	-6.14641
579.238	-14.57544
579.442	103.46523
579.645	-18.7898
579.849	14.92785
580.053	-27.21824
580.257	-14.57544
580.46	36.00449
580.664	65.5157
580.868	21.25059
581.071	69.73195
581.275	19.14299
581.479	-29.32529
581.682	44.4358
581.886	-6.14641
582.09	-35.64629
582.293	-52.50118
582.497	-27.21824
582.7	33.89672
582.904	52.86748
583.107	-25.11117
583.311	40.22009
583.515	-71.461
583.718	-10.36097
583.922	69.73195
584.125	-65.14129
584.329	-10.36097
584.532	19.14299
584.735	27.57355
584.939	61.29953
585.142	-6.14641
585.346	-37.75323
585.549	2.283
585.753	-27.21824
585.956	-58.82135
586.159	-29.32529
586.363	27.57355
586.566	29.68125
586.769	-31.43231
586.973	-52.50118
587.176	23.35822
587.379	14.92785
587.582	38.11228
587.786	6.49786
587.989	-35.64629
588.192	8.60532
588.395	2.283
588.599	-10.36097
588.802	-33.53931
589.005	17.0354
589.208	31.78897
589.411	-73.56752
589.615	-14.57544
589.818	8.60532
590.021	42.32793
590.224	6.49786
590.427	-25.11117
590.63	-1.93175
590.833	17.0354
591.036	36.00449
591.239	19.14299
591.442	-6.14641
591.645	50.75953
591.848	57.08346
592.051	-23.00407
592.254	10.7128
592.457	25.46587
592.66	6.49786
592.863	78.16474
593.066	54.97546
593.269	27.57355
593.472	-27.21824
593.675	-44.07393
593.878	-18.7898
594.081	48.65159
594.284	25.46587
594.486	-69.35446
594.689	-10.36097
594.892	-1.93175
595.095	-14.57544
595.298	-33.53931
595.5	-4.03909
595.703	14.92785
595.906	-25.11117
596.109	-48.28761
596.311	-12.46822
596.514	-23.00407
596.717	-10.36097
596.92	-29.32529
597.122	-25.11117
597.325	-52.50118
597.528	17.0354
597.73	10.7128
597.933	-48.28761
598.136	31.78897
598.338	44.4358
598.541	-1.93175
598.743	-25.11117
598.946	-67.24789
599.148	-58.82135
599.351	19.14299
599.554	12.82031
599.756	-4.03909
599.959	23.35822
600.161	46.54368
600.363	59.19149
600.566	78.16474
600.768	-12.46822
600.971	-52.50118
601.173	44.4358
601.376	44.4358
601.578	-18.7898
601.78	-20.89695
601.983	4.39042
602.185	-6.14641
602.388	6.49786
602.59	-1.93175
602.792	-6.14641
602.995	6.49786
603.197	46.54368
603.399	12.82031
603.601	36.00449
603.804	27.57355
604.006	48.65159
604.208	-1.93175
604.41	-37.75323
604.613	12.82031
604.815	-67.24789
605.017	44.4358
605.219	-16.68263
605.421	-6.14641
605.623	61.29953
605.826	-31.43231
606.028	59.19149
606.23	19.14299
606.432	-54.60793
606.634	-23.00407
606.836	-8.2537
607.038	33.89672
607.24	40.22009
607.442	-128.32791
607.644	42.32793
607.846	-6.14641
608.048	-44.07393
608.25	-29.32529
608.452	-20.89695
608.654	23.35822
608.856	4.39042
609.058	-8.2537
609.26	-27.21824
609.462	23.35822
609.664	52.86748
609.866	-35.64629
610.067	25.46587
610.269	23.35822
610.471	-8.2537
610.673	-6.14641
610.875	50.75953
611.077	-12.46822
611.278	-44.07393
611.48	40.22009
611.682	-14.57544
611.884	8.60532
612.085	17.0354
612.287	6.49786
612.489	-4.03909
612.69	-44.07393
612.892	44.4358
613.094	-1.93175
613.295	14.92785
613.497	31.78897
613.699	-54.60793
613.9	27.57355
614.102	44.4358
614.304	14.92785
614.505	8.60532
614.707	25.46587
614.908	19.14299
615.11	-75.67402
615.311	-52.50118
615.513	-77.78048
615.714	84.48956
615.916	-31.43231
616.117	-56.71465
616.319	-25.11117
616.52	10.7128
616.722	17.0354
616.923	-41.96706
617.124	19.14299
617.326	-20.89695
617.527	-52.50118
617.729	-1.93175
617.93	90.81458
618.131	67.62381
618.333	-56.71465
618.534	-6.14641
618.735	-50.3944
618.937	4.39042
619.138	-48.28761
619.339	52.86748
619.54	-18.7898
619.742	27.57355
619.943	-60.92802
620.144	14.92785
620.345	-50.3944
620.546	10.7128
620.748	-1.93175
620.949	69.73195
621.15	23.35822
621.351	-84.09974
621.552	-1.93175
621.753	67.62381
621.954	14.92785
622.155	-6.14641
622.356	52.86748
622.558	17.0354
622.759	-48.28761
622.96	-41.96706
623.161	-56.71465
623.362	46.54368
623.563	40.22009
623.764	36.00449
623.965	78.16474
624.166	-1.93175
624.366	-27.21824
624.567	27.57355
624.768	-16.68263
624.969	44.4358
625.17	29.68125
625.371	-18.7898
625.572	42.32793
625.773	31.78897
625.973	-4.03909
626.174	78.16474
626.375	2.283
626.576	17.0354
626.777	25.46587
626.977	78.16474
627.178	10.7128
627.379	23.35822
627.58	-18.7898
627.78	40.22009
627.981	-6.14641
628.182	-35.64629
628.382	25.46587
628.583	-94.6313
628.784	42.32793
628.984	25.46587
629.185	69.73195
629.386	0.17561
629.586	-12.46822
629.787	50.75953
629.987	-35.64629
630.188	-1.93175
630.388	31.78897
630.589	23.35822
630.79	46.54368
630.99	63.4076
631.191	6.49786
631.391	0.17561
631.591	0.17561
631.792	12.82031
631.992	57.08346
632.193	42.32793
632.393	31.78897
632.594	-52.50118
632.794	27.57355
632.994	6.49786
633.195	12.82031
633.395	48.65159
633.595	38.11228
633.796	36.00449
633.996	-27.21824
634.196	-1.93175
634.397	-1.93175
634.597	-44.07393
634.797	25.46587
634.997	23.35822
635.198	6.49786
635.398	-52.50118
635.598	25.46587
635.798	-14.57544
635.998	23.35822
636.199	40.22009
636.399	14.92785
636.599	-1.93175
636.799	-69.35446
636.999	33.89672
637.199	-31.43231
637.399	27.57355
637.599	111.89944
637.799	14.92785
637.999	-23.00407
638.199	-31.43231
638.399	-60.92802
638.599	40.22009
638.799	21.25059
638.999	25.46587
639.199	-67.24789
639.399	48.65159
639.599	21.25059
639.799	14.92785
639.999	27.57355
640.199	38.11228
640.399	0.17561
640.599	-41.96706
640.799	6.49786
640.998	-8.2537
641.198	-25.11117
641.398	0.17561
641.598	-27.21824
641.798	-16.68263
641.997	36.00449
642.197	65.5157
642.397	10.7128
642.597	25.46587
642.796	71.84011
642.996	-27.21824
643.196	59.19149
643.395	27.57355
643.595	-73.56752
643.795	31.78897
643.994	-73.56752
644.194	27.57355
644.394	-12.46822
644.593	-77.78048
644.793	33.89672
644.992	46.54368
645.192	12.82031
645.392	-33.53931
645.591	-77.78048
645.791	61.29953
645.99	25.46587
646.19	33.89672
646.389	10.7128
646.589	6.49786
646.788	23.35822
646.987	-8.2537
647.187	27.57355
647.386	-23.00407
647.586	46.54368
647.785	50.75953
647.984	36.00449
648.184	36.00449
648.383	19.14299
648.582	69.73195
648.782	-1.93175
648.981	19.14299
649.18	29.68125
649.38	31.78897
649.579	-14.57544
649.778	6.49786
649.977	8.60532
650.177	-18.7898
650.376	86.59788
650.575	-84.09974
650.774	-6.14641
650.973	14.92785
651.173	-35.64629
651.372	-35.64629
651.571	44.4358
651.77	31.78897
651.969	-41.96706
652.168	-16.68263
652.367	-18.7898
652.566	6.49786
652.765	33.89672
652.964	31.78897
653.163	-1.93175
653.362	-25.11117
653.561	-56.71465
653.76	67.62381
653.959	-33.53931
654.158	90.81458
654.357	8.60532
654.556	8.60532
654.755	38.11228
654.954	-8.2537
655.153	-6.14641
655.352	33.89672
655.551	8.60532
655.749	65.5157
655.948	14.92785
656.147	-39.86016
656.346	6.49786
656.545	8.60532
656.743	-16.68263
656.942	80.27299
657.141	33.89672
657.34	86.59788
657.538	31.78897
657.737	73.9483
657.936	-31.43231
658.135	31.78897
658.333	-41.96706
658.532	-29.32529
658.731	10.7128
658.929	-46.18078
659.128	6.49786
659.326	19.14299
659.525	2.283
659.724	40.22009
659.922	-4.03909
660.121	14.92785
660.319	-6.14641
660.518	61.29953
660.716	-14.57544
660.915	42.32793
661.113	-10.36097
661.312	-14.57544
661.51	-29.32529
661.709	48.65159
661.907	17.0354
662.105	-1.93175
662.304	-14.57544
662.502	14.92785
662.701	10.7128
662.899	25.46587
663.097	14.92785
663.296	2.283
663.494	-18.7898
663.692	29.68125
663.891	23.35822
664.089	-6.14641
664.287	14.92785
664.485	48.65159
664.684	-6.14641
664.882	-10.36097
665.08	23.35822
665.278	-20.89695
665.476	-8.2537
665.675	33.89672
665.873	17.0354
666.071	-27.21824
666.269	-6.14641
666.467	-18.7898
666.665	6.49786
666.863	0.17561
667.061	-18.7898
667.259	48.65159
667.457	-56.71465
667.655	36.00449
667.853	80.27299
668.051	48.65159
668.249	44.4358
668.447	76.05651
668.645	-27.21824
668.843	-8.2537
669.041	10.7128
669.239	2.283
669.437	2.283
669.635	-25.11117
669.833	-18.7898
670.031	-27.21824
670.229	48.65159
670.426	-8.2537
670.624	-54.60793
670.822	6.49786
671.02	-50.3944
671.218	-10.36097
671.415	42.32793
671.613	27.57355
671.811	-39.86016
672.009	19.14299
672.206	17.0354
672.404	-44.07393
672.602	17.0354
672.799	-65.14129
672.997	-8.2537
673.195	-20.89695
673.392	40.22009
673.59	38.11228
673.788	73.9483
673.985	23.35822
674.183	-31.43231
674.38	10.7128
674.578	38.11228
674.775	42.32793
674.973	17.0354
675.17	-23.00407
675.368	17.0354
675.565	25.46587
675.763	25.46587
675.96	-100.94993
676.158	-67.24789
676.355	82.38126
676.553	52.86748
676.75	-1.93175
676.947	27.57355
677.145	52.86748
677.342	29.68125
677.539	-25.11117
677.737	-16.68263
677.934	-8.2537
678.131	36.00449
678.329	50.75953
678.526	-60.92802
678.723	33.89672
678.92	8.60532
679.118	-18.7898
679.315	27.57355
679.512	-50.3944
679.709	14.92785
679.906	2.283
680.104	-10.36097
680.301	69.73195
680.498	2.283
680.695	-6.14641
680.892	36.00449
681.089	14.92785
681.286	40.22009
681.483	73.9483
681.68	-6.14641
681.877	40.22009
682.075	71.84011
682.272	-27.21824
682.469	40.22009
682.665	12.82031
682.862	33.89672
683.059	-31.43231
683.256	-23.00407
683.453	40.22009
683.65	-23.00407
683.847	-27.21824
684.044	-10.36097
684.241	23.35822
684.438	-20.89695
684.635	-39.86016
684.831	-10.36097
685.028	84.48956
685.225	36.00449
685.422	31.78897
685.619	-10.36097
685.815	-18.7898
686.012	6.49786
686.209	33.89672
686.405	-48.28761
686.602	12.82031
686.799	-41.96706
686.996	17.0354
687.192	-1.93175
687.389	14.92785
687.586	-6.14641
687.782	-50.3944
687.979	-4.03909
688.175	17.0354
688.372	-67.24789
688.568	71.84011
688.765	61.29953
688.962	46.54368
689.158	50.75953
689.355	14.92785
689.551	-1.93175
689.748	-18.7898
689.944	57.08346
690.14	2.283
690.337	21.25059
690.533	31.78897
690.73	-18.7898
690.926	-31.43231
691.123	12.82031
691.319	-58.82135
691.515	23.35822
691.712	76.05651
691.908	97.13981
692.104	4.39042
692.301	10.7128
692.497	50.75953
692.693	0.17561
692.889	-35.64629
693.086	-14.57544
693.282	12.82031
693.478	-44.07393
693.674	10.7128
693.87	44.4358
694.067	31.78897
694.263	69.73195
694.459	8.60532
694.655	6.49786
694.851	-31.43231
695.047	-18.7898
695.243	48.65159
695.439	-16.68263
695.635	14.92785
695.831	-27.21824
696.027	38.11228
696.224	-10.36097
696.42	-33.53931
696.615	-35.64629
696.811	-1.93175
697.007	90.81458
697.203	36.00449
697.399	0.17561
697.595	99.24826
697.791	-18.7898
697.987	36.00449
698.183	-33.53931
698.379	-23.00407
698.575	17.0354
698.77	-8.2537
698.966	0.17561
699.162	-10.36097
699.358	0.17561
699.554	50.75953
699.749	44.4358
699.945	-8.2537
700.141	29.68125
700.337	-25.11117
700.532	-16.68263
700.728	17.0354
700.924	17.0354
701.119	25.46587
701.315	-65.14129
701.511	42.32793
701.706	23.35822
701.902	-60.92802
702.097	-16.68263
702.293	23.35822
702.489	25.46587
702.684	65.5157
702.88	-44.07393
703.075	0.17561
703.271	48.65159
703.466	-73.56752
703.662	-14.57544
703.857	23.35822
704.053	-27.21824
704.248	48.65159
704.443	4.39042
704.639	42.32793
704.834	-84.09974
705.03	-8.2537
705.225	-44.07393
705.42	-31.43231
705.616	38.11228
705.811	-12.46822
706.006	36.00449
706.202	12.82031
706.397	6.49786
706.592	23.35822
706.787	-92.52504
706.983	-60.92802
707.178	-1.93175
707.373	-8.2537
707.568	-14.57544
707.763	0.17561
707.959	-18.7898
708.154	6.49786
708.349	14.92785
708.544	25.46587
708.739	-35.64629
708.934	-48.28761
709.129	6.49786
709.324	-44.07393
709.519	-23.00407
709.714	-1.93175
709.909	-58.82135
710.104	17.0354
710.299	57.08346
710.494	-58.82135
710.689	-27.21824
710.884	-39.86016
711.079	59.19149
711.274	-52.50118
711.469	-27.21824
711.664	46.54368
711.859	-1.93175
712.054	-31.43231
712.249	48.65159
712.443	-23.00407
712.638	-31.43231
712.833	23.35822
713.028	-35.64629
713.223	6.49786
713.417	50.75953
713.612	14.92785
713.807	33.89672
714.002	116.11668
714.196	2.283
714.391	-35.64629
714.586	40.22009
714.78	-4.03909
714.975	-86.2061
715.17	14.92785
715.364	-58.82135
715.559	126.66015
715.754	-10.36097
715.948	76.05651
716.143	-18.7898
716.337	-1.93175
716.532	27.57355
716.726	31.78897
716.921	-16.68263
717.115	6.49786
717.31	-1.93175
717.504	10.7128
717.699	-98.84375
717.893	-35.64629
718.088	33.89672
718.282	10.7128
718.476	36.00449
718.671	50.75953
718.865	-10.36097
719.059	-16.68263
719.254	65.5157
719.448	25.46587
719.642	23.35822
719.837	-39.86016
720.031	23.35822
720.225	-44.07393
720.419	10.7128
720.614	4.39042
720.808	23.35822
721.002	27.57355
721.196	48.65159
721.39	-1.93175
721.585	73.9483
721.779	-6.14641
721.973	-39.86016
722.167	-39.86016
722.361	-44.07393
722.555	-10.36097
722.749	27.57355
722.943	23.35822
723.137	14.92785
723.331	-41.96706
723.525	54.97546
723.719	19.14299
723.913	-60.92802
724.107	23.35822
724.301	-52.50118
724.495	8.60532
724.689	-10.36097
724.883	-10.36097
725.077	2.283
725.271	31.78897
725.465	-10.36097
725.659	6.49786
725.853	46.54368
726.046	-56.71465
726.24	-4.03909
726.434	36.00449
726.628	50.75953
726.822	-69.35446
727.015	-6.14641
727.209	-6.14641
727.403	67.62381
727.596	33.89672
727.79	23.35822
727.984	78.16474
728.177	-44.07393
728.371	57.08346
728.565	8.60532
728.758	25.46587
728.952	-23.00407
729.146	46.54368
729.339	33.89672
729.533	-10.36097
729.726	-33.53931
729.92	19.14299
730.113	-20.89695
730.307	23.35822
730.5	-54.60793
730.694	8.60532
730.887	-31.43231
731.081	-1.93175
731.274	-31.43231
731.468	-10.36097
731.661	-14.57544
731.854	-60.92802
732.048	0.17561
732.241	-31.43231
732.435	-23.00407
732.628	-35.64629
732.821	25.46587
733.014	0.17561
733.208	40.22009
733.401	44.4358
733.594	-12.46822
733.788	78.16474
733.981	-31.43231
734.174	-71.461
734.367	-18.7898
734.56	23.35822
734.754	23.35822
734.947	-27.21824
735.14	-39.86016
735.333	-8.2537
735.526	-23.00407
735.719	50.75953
735.912	50.75953
736.105	-1.93175
736.298	14.92785
736.491	48.65159
736.684	78.16474
736.877	33.89672
737.07	-6.14641
737.263	-39.86016
737.456	6.49786
737.649	19.14299
737.842	-31.43231
738.035	23.35822
738.228	25.46587
738.421	-58.82135
738.614	14.92785
738.807	40.22009
739	14.92785
739.192	-18.7898
739.385	0.17561
739.578	-1.93175
739.771	17.0354
739.964	-12.46822
740.156	33.89672
740.349	42.32793
740.542	21.25059
740.735	14.92785
740.927	31.78897
741.12	2.283
741.313	59.19149
741.505	-69.35446
741.698	-46.18078
741.891	6.49786
742.083	52.86748
742.276	-20.89695
742.468	19.14299
742.661	6.49786
742.854	-23.00407
743.046	-14.57544
743.239	27.57355
743.431	-48.28761
743.624	-10.36097
743.816	19.14299
744.009	23.35822
744.201	-60.92802
744.393	54.97546
744.586	50.75953
744.778	-23.00407
744.971	61.29953
745.163	12.82031
745.355	73.9483
745.548	6.49786
745.74	-54.60793
745.932	21.25059
746.125	-27.21824
746.317	14.92785
746.509	14.92785
746.702	63.4076
746.894	-6.14641
747.086	10.7128
747.278	31.78897
747.471	-37.75323
747.663	10.7128
747.855	-1.93175
748.047	-33.53931
748.239	48.65159
748.431	-44.07393
748.623	-29.32529
748.815	-81.99334
749.008	-58.82135
749.2	-29.32529
749.392	-27.21824
749.584	-27.21824
749.776	-27.21824
749.968	10.7128
750.16	-52.50118
750.352	-8.2537
750.544	-4.03909
750.736	10.7128
750.928	-6.14641
751.12	6.49786
751.311	44.4358
751.503	4.39042
751.695	-10.36097
751.887	19.14299
752.079	2.283
752.271	48.65159
752.463	0.17561
752.654	0.17561
752.846	50.75953
753.038	19.14299
753.23	23.35822
753.421	-18.7898
753.613	25.46587
753.805	40.22009
753.997	-54.60793
754.188	2.283
754.38	-52.50118
754.572	23.35822
754.763	73.9483
754.955	-1.93175
755.146	-16.68263
755.338	52.86748
755.53	-18.7898
755.721	36.00449
755.913	17.0354
756.104	17.0354
756.296	17.0354
756.487	-14.57544
756.679	38.11228
756.87	27.57355
757.062	-27.21824
757.253	-31.43231
757.445	-23.00407
757.636	42.32793
757.827	6.49786
758.019	-6.14641
758.21	8.60532
758.401	27.57355
758.593	48.65159
758.784	-25.11117
758.975	-4.03909
759.167	52.86748
759.358	42.32793
759.549	-23.00407
759.74	-90.41875
759.932	73.9483
760.123	31.78897
760.314	31.78897
760.505	-25.11117
760.696	17.0354
760.888	23.35822
761.079	73.9483
761.27	6.49786
761.461	57.08346
761.652	23.35822
761.843	-1.93175
762.034	40.22009
762.225	-48.28761
762.416	-25.11117
762.607	10.7128
762.798	-6.14641
762.989	-31.43231
763.18	-20.89695
763.371	-10.36097
763.562	-23.00407
763.753	40.22009
763.944	54.97546
764.135	40.22009
764.326	84.48956
764.517	-23.00407
764.708	14.92785
764.899	46.54368
765.089	10.7128
765.28	-16.68263
765.471	-33.53931
765.662	103.46523
765.853	6.49786
766.043	-44.07393
766.234	-12.46822
766.425	-6.14641
766.615	17.0354
766.806	14.92785
766.997	19.14299
767.187	-4.03909
767.378	-44.07393
767.569	48.65159
767.759	-4.03909
767.95	44.4358
768.141	-29.32529
768.331	21.25059
768.522	-25.11117
768.712	50.75953
768.903	-29.32529
769.093	-12.46822
769.284	-6.14641
769.474	8.60532
769.665	-31.43231
769.855	42.32793
770.046	44.4358
770.236	48.65159
770.426	48.65159
770.617	-27.21824
770.807	23.35822
770.998	-35.64629
771.188	-16.68263
771.378	48.65159
771.569	-41.96706
771.759	38.11228
771.949	-33.53931
772.139	44.4358
772.33	67.62381
772.52	-10.36097
772.71	14.92785
772.9	-44.07393
773.09	54.97546
773.281	19.14299
773.471	-35.64629
773.661	10.7128
773.851	17.0354
774.041	-33.53931
774.231	-25.11117
774.421	31.78897
774.611	40.22009
774.802	31.78897
774.992	31.78897
775.182	23.35822
775.372	50.75953
775.562	42.32793
775.752	-16.68263
775.942	-6.14641
776.131	-25.11117
776.321	-50.3944
776.511	42.32793
776.701	8.60532
776.891	6.49786
777.081	63.4076
777.271	33.89672
777.461	-39.86016
777.651	54.97546
777.84	-20.89695
778.03	27.57355
778.22	-115.69247
778.41	6.49786
778.599	-25.11117
778.789	50.75953
778.979	65.5157
779.169	44.4358
779.358	-18.7898
779.548	-6.14641
779.738	27.57355
779.927	12.82031
780.117	-44.07393
780.307	31.78897
780.496	-31.43231
780.686	21.25059
780.875	2.283
781.065	29.68125
781.254	27.57355
781.444	17.0354
781.633	-23.00407
781.823	-41.96706
782.012	-4.03909
782.202	14.92785
782.391	-6.14641
782.581	10.7128
782.77	33.89672
782.96	-69.35446
783.149	-69.35446
783.338	-6.14641
783.528	-39.86016
783.717	-18.7898
783.906	-41.96706
784.096	6.49786
784.285	-27.21824
784.474	-1.93175
784.663	-8.2537
784.853	33.89672
785.042	69.73195
785.231	38.11228
785.42	-33.53931
785.61	-48.28761
785.799	59.19149
785.988	-31.43231
786.177	76.05651
786.366	-35.64629
786.555	50.75953
786.744	27.57355
786.933	14.92785
787.122	48.65159
787.312	21.25059
787.501	-23.00407
787.69	36.00449
787.879	-29.32529
788.068	-50.3944
788.257	-65.14129
788.445	118.22533
788.634	-27.21824
788.823	14.92785
789.012	50.75953
789.201	73.9483
789.39	-10.36097
789.579	2.283
789.768	33.89672
789.957	52.86748
790.145	-6.14641
790.334	-56.71465
790.523	-31.43231
790.712	14.92785
790.9	-18.7898
791.089	19.14299
791.278	61.29953
791.467	-23.00407
791.655	38.11228
791.844	-18.7898
792.033	6.49786
792.221	-16.68263
792.41	-14.57544
792.599	2.283
792.787	12.82031
792.976	14.92785
793.164	42.32793
793.353	44.4358
793.541	-1.93175
793.73	0.17561
793.918	-16.68263
794.107	57.08346
794.295	-6.14641
794.484	19.14299
794.672	57.08346
794.861	38.11228
795.049	0.17561
795.238	46.54368
795.426	40.22009
795.614	23.35822
795.803	14.92785
795.991	-14.57544
796.179	44.4358
796.368	6.49786
796.556	10.7128
796.744	8.60532
796.932	-52.50118
797.121	-6.14641
797.309	50.75953
797.497	36.00449
797.685	-1.93175
797.874	19.14299
798.062	-44.07393
798.25	-25.11117
798.438	-33.53931
798.626	42.32793
798.814	-44.07393
799.002	27.57355
799.19	-4.03909
799.378	-10.36097
799.566	-77.78048
799.755	48.65159
799.943	90.81458
800.131	25.46587
800.318	57.08346
800.506	-44.07393
800.694	-14.57544
800.882	12.82031
801.07	-33.53931
801.258	0.17561
801.446	23.35822
801.634	73.9483
801.822	-23.00407
802.01	-10.36097
802.197	25.46587
802.385	65.5157
802.573	-8.2537
802.761	-20.89695
802.949	2.283
803.136	84.48956
803.324	-25.11117
803.512	40.22009
803.699	29.68125
803.887	2.283
804.075	54.97546
804.262	-16.68263
804.45	10.7128
804.638	-10.36097
804.825	-1.93175
805.013	40.22009
805.201	44.4358
805.388	6.49786
805.576	36.00449
805.763	29.68125
805.951	-1.93175
806.138	65.5157
806.326	-29.32529
806.513	-6.14641
806.701	-12.46822
806.888	29.68125
807.075	-20.89695
807.263	71.84011
807.45	6.49786
807.638	31.78897
807.825	-16.68263
808.012	59.19149
808.2	-39.86016
808.387	-14.57544
808.574	-27.21824
808.761	6.49786
808.949	-29.32529
809.136	42.32793
809.323	63.4076
809.51	17.0354
809.698	14.92785
809.885	6.49786
810.072	-48.28761
810.259	48.65159
810.446	27.57355
810.633	-8.2537
810.82	-4.03909
811.008	-48.28761
811.195	69.73195
811.382	31.78897
811.569	-16.68263
811.756	-35.64629
811.943	-18.7898
812.13	27.57355
812.317	-1.93175
812.504	31.78897
812.691	-18.7898
812.878	31.78897
813.064	57.08346
813.251	65.5157
813.438	31.78897
813.625	-35.64629
813.812	-8.2537
813.999	65.5157
814.186	27.57355
814.372	-54.60793
814.559	25.46587
814.746	-6.14641
814.933	31.78897
815.12	23.35822
815.306	31.78897
815.493	48.65159
815.68	-1.93175
815.866	-6.14641
816.053	-23.00407
816.24	-10.36097
816.426	23.35822
816.613	38.11228
816.799	99.24826
816.986	-31.43231
817.173	-25.11117
817.359	23.35822
817.546	33.89672
817.732	67.62381
817.919	21.25059
818.105	82.38126
818.292	-10.36097
818.478	-29.32529
818.665	4.39042
818.851	8.60532
819.037	-41.96706
819.224	19.14299
819.41	-18.7898
819.597	40.22009
819.783	54.97546
819.969	-18.7898
820.156	-58.82135
820.342	10.7128
820.528	12.82031
820.714	-27.21824
820.901	42.32793
821.087	25.46587
821.273	59.19149
821.459	6.49786
821.646	40.22009
821.832	36.00449
822.018	-18.7898
822.204	-27.21824
822.39	-1.93175
822.576	-33.53931
822.762	-33.53931
822.948	-18.7898
823.134	6.49786
823.32	-4.03909
823.507	29.68125
823.693	-1.93175
823.879	44.4358
824.065	52.86748
824.25	-25.11117
824.436	17.0354
824.622	-12.46822
824.808	23.35822
824.994	-29.32529
825.18	101.35674
825.366	-41.96706
825.552	-1.93175
825.738	-27.21824
825.923	-71.461
826.109	14.92785
826.295	-46.18078
826.481	-46.18078
826.667	-10.36097
826.852	-18.7898
827.038	-27.21824
827.224	31.78897
827.409	44.4358
827.595	-35.64629
827.781	63.4076
827.966	-10.36097
828.152	50.75953
828.338	-20.89695
828.523	27.57355
828.709	-41.96706
828.894	-84.09974
829.08	14.92785
829.266	17.0354
829.451	-6.14641
829.637	-44.07393
829.822	40.22009
830.008	14.92785
830.193	-77.78048
830.378	-60.92802
830.564	40.22009
830.749	-60.92802
830.935	-52.50118
831.12	50.75953
831.305	-14.57544
831.491	-33.53931
831.676	29.68125
831.861	21.25059
832.047	44.4358
832.232	-1.93175
832.417	-56.71465
832.602	33.89672
832.788	21.25059
832.973	-75.67402
833.158	-6.14641
833.343	-37.75323
833.528	-77.78048
833.714	23.35822
833.899	2.283
834.084	14.92785
834.269	-44.07393
834.454	-10.36097
834.639	14.92785
834.824	57.08346
835.009	-6.14641
835.194	-37.75323
835.379	44.4358
835.564	31.78897
835.749	65.5157
835.934	57.08346
836.119	42.32793
836.304	-23.00407
836.489	6.49786
836.674	61.29953
836.859	31.78897
837.044	25.46587
837.228	-6.14641
837.413	61.29953
837.598	-1.93175
837.783	17.0354
837.968	57.08346
838.152	40.22009
838.337	-1.93175
838.522	10.7128
838.707	0.17561
838.891	-20.89695
839.076	61.29953
839.261	27.57355
839.445	23.35822
839.63	40.22009
839.815	2.283
839.999	19.14299
840.184	-73.56752
840.368	4.39042
840.553	31.78897
840.737	8.60532
840.922	-10.36097
841.106	2.283
841.291	23.35822
841.475	38.11228
841.66	-6.14641
841.844	17.0354
842.029	21.25059
842.213	65.5157
842.397	-8.2537
842.582	57.08346
842.766	23.35822
842.951	40.22009
843.135	27.57355
843.319	86.59788
843.504	-60.92802
843.688	33.89672
843.872	-33.53931
844.056	65.5157
844.241	6.49786
844.425	-39.86016
844.609	38.11228
844.793	21.25059
844.977	-86.2061
845.161	42.32793
845.346	-35.64629
845.53	57.08346
845.714	36.00449
845.898	2.283
846.082	-16.68263
846.266	76.05651
846.45	2.283
846.634	-35.64629
846.818	-48.28761
847.002	-48.28761
847.186	65.5157
847.37	-1.93175
847.554	21.25059
847.738	-4.03909
847.922	36.00449
848.106	59.19149
848.29	-16.68263
848.473	-8.2537
848.657	46.54368
848.841	-23.00407
849.025	38.11228
849.209	31.78897
849.392	14.92785
849.576	-14.57544
849.76	111.89944
849.944	76.05651
850.127	-25.11117
850.311	-6.14641
850.495	-33.53931
850.678	59.19149
850.862	-1.93175
851.046	-10.36097
851.229	-35.64629
851.413	-10.36097
851.596	-10.36097
851.78	42.32793
851.964	-71.461
852.147	-27.21824
852.331	-35.64629
852.514	-8.2537
852.698	27.57355
852.881	36.00449
853.065	69.73195
853.248	27.57355
853.431	48.65159
853.615	31.78897
853.798	40.22009
853.982	19.14299
854.165	10.7128
854.348	-20.89695
854.532	67.62381
854.715	-60.92802
854.898	23.35822
855.081	17.0354
855.265	105.57375
855.448	-44.07393
855.631	27.57355
855.814	23.35822
855.997	-23.00407
856.181	57.08346
856.364	-14.57544
856.547	40.22009
856.73	88.70622
856.913	40.22009
857.096	-10.36097
857.279	29.68125
857.462	-4.03909
857.645	31.78897
857.828	48.65159
858.011	-6.14641
858.194	40.22009
858.377	-25.11117
858.56	8.60532
858.743	-58.82135
858.926	-58.82135
859.109	19.14299
859.292	63.4076
859.475	23.35822
859.658	40.22009
859.841	-16.68263
860.023	-18.7898
860.206	40.22009
860.389	92.92297
860.572	-12.46822
860.755	4.39042
860.937	-18.7898
861.12	-35.64629
861.303	-23.00407
861.486	-44.07393
861.668	-33.53931
861.851	23.35822
862.034	8.60532
862.216	-4.03909
862.399	31.78897
862.581	-52.50118
862.764	-18.7898
862.947	-25.11117
863.129	0.17561
863.312	-6.14641
863.494	0.17561
863.677	-39.86016
863.859	21.25059
864.042	14.92785
864.224	54.97546
864.406	23.35822
864.589	76.05651
864.771	23.35822
864.954	69.73195
865.136	31.78897
865.318	-10.36097
865.501	-107.26832
865.683	-4.03909
865.865	8.60532
866.048	57.08346
866.23	-25.11117
866.412	65.5157
866.594	-39.86016
866.777	78.16474
866.959	-44.07393
867.141	50.75953
867.323	44.4358
867.505	65.5157
867.687	-56.71465
867.869	31.78897
868.052	-54.60793
868.234	17.0354
868.416	25.46587
868.598	21.25059
868.78	-27.21824
868.962	-10.36097
869.144	-33.53931
869.326	-27.21824
869.508	-44.07393
869.69	48.65159
869.872	-4.03909
870.054	12.82031
870.236	-35.64629
870.417	52.86748
870.599	-39.86016
870.781	-1.93175
870.963	-1.93175
871.145	6.49786
871.327	17.0354
871.508	-14.57544
871.69	12.82031
871.872	48.65159
872.054	40.22009
872.235	38.11228
872.417	84.48956
872.599	-20.89695
872.78	42.32793
872.962	44.4358
873.144	27.57355
873.325	-52.50118
873.507	-94.6313
873.689	73.9483
873.87	-58.82135
874.052	-1.93175
874.233	-4.03909
874.415	38.11228
874.596	23.35822
874.778	65.5157
874.959	-41.96706
875.141	61.29953
875.322	36.00449
875.503	-18.7898
875.685	6.49786
875.866	-44.07393
876.048	33.89672
876.229	-1.93175
876.41	-65.14129
876.592	99.24826
876.773	-37.75323
876.954	-10.36097
877.136	-50.3944
877.317	8.60532
877.498	0.17561
877.679	-35.64629
877.86	10.7128
878.042	38.11228
878.223	-14.57544
878.404	42.32793
878.585	50.75953
878.766	33.89672
878.947	17.0354
879.128	-44.07393
879.309	8.60532
879.49	23.35822
879.672	17.0354
879.853	25.46587
880.034	73.9483
880.215	73.9483
880.396	10.7128
880.576	-56.71465
880.757	-29.32529
880.938	73.9483
881.119	-20.89695
881.3	-46.18078
881.481	10.7128
881.662	6.49786
881.843	57.08346
882.023	4.39042
882.204	-1.93175
882.385	50.75953
882.566	23.35822
882.747	19.14299
882.927	-23.00407
883.108	-8.2537
883.289	4.39042
883.469	-8.2537
883.65	19.14299
883.831	21.25059
884.011	36.00449
884.192	-33.53931
884.373	10.7128
884.553	23.35822
884.734	-52.50118
884.914	19.14299
885.095	-69.35446
885.275	-16.68263
885.456	-48.28761
885.636	-10.36097
885.817	-54.60793
885.997	12.82031
886.178	31.78897
886.358	-27.21824
886.538	-12.46822
886.719	-16.68263
886.899	-60.92802
887.08	57.08346
887.26	25.46587
887.44	-20.89695
887.621	-35.64629
887.801	14.92785
887.981	23.35822
888.161	-25.11117
888.342	33.89672
888.522	2.283
888.702	-18.7898
888.882	40.22009
889.062	31.78897
889.242	65.5157
889.423	-52.50118
889.603	8.60532
889.783	-75.67402
889.963	48.65159
890.143	-56.71465
890.323	57.08346
890.503	17.0354
890.683	-60.92802
890.863	38.11228
891.043	-48.28761
891.223	-52.50118
891.403	12.82031
891.583	61.29953
891.763	2.283
891.943	17.0354
892.122	0.17561
892.302	31.78897
892.482	-1.93175
892.662	-1.93175
892.842	23.35822
893.022	50.75953
893.201	38.11228
893.381	33.89672
893.561	10.7128
893.741	-18.7898
893.92	31.78897
894.1	23.35822
894.28	2.283
894.459	-29.32529
894.639	6.49786
894.819	36.00449
894.998	-81.99334
895.178	50.75953
895.357	-73.56752
895.537	-60.92802
895.716	36.00449
895.896	29.68125
896.075	-20.89695
896.255	-4.03909
896.434	128.76891
896.614	-23.00407
896.793	4.39042
896.973	23.35822
897.152	12.82031
897.331	19.14299
897.511	-29.32529
897.69	-4.03909
897.87	-4.03909
898.049	-16.68263
898.228	-27.21824
898.407	-4.03909
898.587	54.97546
898.766	36.00449
898.945	-1.93175
899.124	-39.86016
899.304	44.4358
899.483	10.7128
899.662	33.89672
899.841	10.7128
900.02	23.35822
900.199	-6.14641
900.378	-14.57544
900.557	-6.14641
900.737	10.7128
900.916	23.35822
901.095	0.17561
901.274	61.29953
901.453	-67.24789
901.632	65.5157
901.811	-4.03909
901.989	48.65159
902.168	48.65159
902.347	-4.03909
902.526	17.0354
902.705	-6.14641
902.884	-6.14641
903.063	69.73195
903.242	-1.93175
903.42	-6.14641
903.599	48.65159
903.778	40.22009
903.957	-46.18078
904.135	-8.2537
904.314	36.00449
904.493	0.17561
904.672	-1.93175
904.85	-23.00407
905.029	-86.2061
905.207	-25.11117
905.386	40.22009
905.565	-39.86016
905.743	-27.21824
905.922	-1.93175
906.1	12.82031
906.279	-14.57544
906.457	-44.07393
906.636	0.17561
906.814	19.14299
906.993	-37.75323
907.171	2.283
907.35	6.49786
907.528	0.17561
907.707	17.0354
907.885	33.89672
908.063	-60.92802
908.242	-1.93175
908.42	-48.28761
908.598	23.35822
908.777	12.82031
908.955	29.68125
909.133	-1.93175
909.311	-6.14641
909.49	0.17561
909.668	23.35822
909.846	57.08346
910.024	-1.93175
910.202	6.49786
910.38	-10.36097
910.559	19.14299
910.737	57.08346
910.915	29.68125
911.093	29.68125
911.271	-29.32529
911.449	27.57355
911.627	61.29953
911.805	-29.32529
911.983	33.89672
912.161	65.5157
912.339	-29.32529
912.517	-50.3944
912.695	0.17561
912.872	17.0354
913.05	6.49786
913.228	48.65159
913.406	-10.36097
913.584	40.22009
913.762	69.73195
913.939	71.84011
914.117	57.08346
914.295	-18.7898
914.473	-27.21824
914.65	-14.57544
914.828	-20.89695
915.006	8.60532
915.184	44.4358
915.361	-16.68263
915.539	6.49786
915.716	-50.3944
915.894	-10.36097
916.072	-63.03467
916.249	42.32793
916.427	19.14299
916.604	33.89672
916.782	-8.2537
916.959	8.60532
917.137	-6.14641
917.314	-39.86016
917.492	0.17561
917.669	-35.64629
917.847	6.49786
918.024	23.35822
918.201	65.5157
918.379	-31.43231
918.556	65.5157
918.733	29.68125
918.911	31.78897
919.088	-52.50118
919.265	8.60532
919.442	-12.46822
919.62	-18.7898
919.797	-18.7898
919.974	-6.14641
920.151	6.49786
920.328	52.86748
920.506	14.92785
920.683	2.283
920.86	-16.68263
921.037	21.25059
921.214	73.9483
921.391	27.57355
921.568	0.17561
921.745	65.5157
921.922	33.89672
922.099	73.9483
922.276	23.35822
922.453	23.35822
922.63	21.25059
922.807	61.29953
922.984	-18.7898
923.161	-6.14641
923.338	-90.41875
923.514	12.82031
923.691	-20.89695
923.868	-12.46822
924.045	10.7128
924.222	19.14299
924.399	31.78897
924.575	-25.11117
924.752	-16.68263
924.929	21.25059
925.105	40.22009
925.282	6.49786
925.459	29.68125
925.635	48.65159
925.812	-69.35446
925.989	14.92785
926.165	-41.96706
926.342	33.89672
926.518	-10.36097
926.695	-12.46822
926.871	23.35822
927.048	27.57355
927.224	88.70622
927.401	23.35822
927.577	27.57355
927.754	82.38126
927.93	-20.89695
928.107	17.0354
928.283	14.92785
928.459	120.334
928.636	31.78897
928.812	23.35822
928.988	54.97546
929.165	-18.7898
929.341	38.11228
929.517	27.57355
929.693	-31.43231
929.87	-16.68263
930.046	12.82031
930.222	40.22009
930.398	71.84011
930.574	6.49786
930.751	82.38126
930.927	10.7128
931.103	-18.7898
931.279	-39.86016
931.455	-27.21824
931.631	-52.50118
931.807	-25.11117
931.983	-60.92802
932.159	-1.93175
932.335	31.78897
932.511	42.32793
932.687	-73.56752
932.863	69.73195
933.039	-31.43231
933.215	-18.7898
933.391	6.49786
933.566	36.00449
933.742	-39.86016
933.918	-10.36097
934.094	36.00449
934.27	6.49786
934.445	10.7128
934.621	19.14299
934.797	40.22009
934.973	54.97546
935.148	-10.36097
935.324	-1.93175
935.5	50.75953
935.675	-4.03909
935.851	40.22009
936.027	10.7128
936.202	0.17561
936.378	40.22009
936.553	-18.7898
936.729	-41.96706
936.904	-25.11117
937.08	-33.53931
937.255	-10.36097
937.431	27.57355
937.606	38.11228
937.782	14.92785
937.957	-58.82135
938.133	111.89944
938.308	6.49786
938.483	-27.21824
938.659	31.78897
938.834	8.60532
939.009	-54.60793
939.185	-35.64629
939.36	-20.89695
939.535	-33.53931
939.71	14.92785
939.886	-58.82135
940.061	-41.96706
940.236	-8.2537
940.411	50.75953
940.586	25.46587
940.761	31.78897
940.937	63.4076
941.112	-10.36097
941.287	78.16474
941.462	-4.03909
941.637	31.78897
941.812	95.03138
941.987	-6.14641
942.162	-6.14641
942.337	-10.36097
942.512	-10.36097
942.687	23.35822
942.862	42.32793
943.037	-18.7898
943.212	67.62381
943.386	36.00449
943.561	17.0354
943.736	-60.92802
943.911	6.49786
944.086	6.49786
944.26	19.14299
944.435	-52.50118
944.61	2.283
944.785	-60.92802
944.959	14.92785
945.134	19.14299
945.309	0.17561
945.483	59.19149
945.658	-31.43231
945.833	12.82031
946.007	19.14299
946.182	-1.93175
946.357	61.29953
946.531	25.46587
946.706	-31.43231
946.88	42.32793
947.055	-35.64629
947.229	-35.64629
947.404	-33.53931
947.578	-29.32529
947.752	17.0354
947.927	65.5157
948.101	-18.7898
948.276	29.68125
948.45	65.5157
948.624	63.4076
948.799	78.16474
948.973	-69.35446
949.147	33.89672
949.321	-8.2537
949.496	0.17561
949.67	-44.07393
949.844	73.9483
950.018	-52.50118
950.193	17.0354
950.367	23.35822
950.541	-25.11117
950.715	-10.36097
950.889	61.29953
951.063	-1.93175
951.237	46.54368
951.411	42.32793
951.585	52.86748
951.759	63.4076
951.933	6.49786
952.107	8.60532
952.281	19.14299
952.455	0.17561
952.629	23.35822
952.803	-1.93175
952.977	-52.50118
953.151	69.73195
953.325	23.35822
953.499	-1.93175
953.672	-6.14641
953.846	-35.64629
954.02	67.62381
954.194	14.92785
954.368	-8.2537
954.541	27.57355
954.715	-18.7898
954.889	-1.93175
955.062	-23.00407
955.236	-10.36097
955.41	0.17561
955.583	-6.14641
955.757	12.82031
955.93	-50.3944
956.104	42.32793
956.278	14.92785
956.451	-63.03467
956.625	23.35822
956.798	23.35822
956.972	-1.93175
957.145	17.0354
957.319	52.86748
957.492	8.60532
957.665	-25.11117
957.839	0.17561
958.012	27.57355
958.185	25.46587
958.359	128.76891
958.532	4.39042
958.705	19.14299
958.879	50.75953
959.052	-58.82135
959.225	40.22009
959.398	31.78897
959.572	52.86748
959.745	-35.64629
959.918	-35.64629
960.091	-29.32529
960.264	40.22009
960.438	17.0354
960.611	-33.53931
960.784	-25.11117
960.957	23.35822
961.13	-20.89695
961.303	42.32793
961.476	-10.36097
961.649	14.92785
961.822	23.35822
961.995	19.14299
962.168	23.35822
962.341	23.35822
962.514	-50.3944
962.686	14.92785
962.859	8.60532
963.032	65.5157
963.205	-37.75323
963.378	-39.86016
963.551	14.92785
963.723	0.17561
963.896	-39.86016
964.069	-50.3944
964.242	31.78897
964.414	-6.14641
964.587	-16.68263
964.76	-1.93175
964.932	25.46587
965.105	-20.89695
965.278	17.0354
965.45	10.7128
965.623	44.4358
965.795	-27.21824
965.968	33.89672
966.14	42.32793
966.313	-56.71465
966.485	25.46587
966.658	-1.93175
966.83	-44.07393
967.003	6.49786
967.175	69.73195
967.348	-44.07393
967.52	59.19149
967.692	-1.93175
967.865	52.86748
968.037	6.49786
968.209	23.35822
968.382	-37.75323
968.554	12.82031
968.726	-60.92802
968.898	23.35822
969.071	48.65159
969.243	-1.93175
969.415	67.62381
969.587	44.4358
969.759	12.82031
969.932	-12.46822
970.104	-16.68263
970.276	-16.68263
970.448	-48.28761
970.62	10.7128
970.792	6.49786
970.964	-27.21824
971.136	-65.14129
971.308	61.29953
971.48	50.75953
971.652	78.16474
971.824	12.82031
971.996	65.5157
972.168	-10.36097
972.339	-8.2537
972.511	-14.57544
972.683	73.9483
972.855	2.283
973.027	54.97546
973.199	-92.52504
973.37	10.7128
973.542	86.59788
973.714	-39.86016
973.886	-10.36097
974.057	19.14299
974.229	-35.64629
974.401	27.57355
974.572	31.78897
974.744	-10.36097
974.915	27.57355
975.087	-41.96706
975.259	36.00449
975.43	10.7128
975.602	14.92785
975.773	8.60532
975.945	-18.7898
976.116	52.86748
976.288	-18.7898
976.459	-14.57544
976.63	-27.21824
976.802	33.89672
976.973	27.57355
977.145	-10.36097
977.316	-1.93175
977.487	-10.36097
977.659	36.00449
977.83	-14.57544
978.001	40.22009
978.172	36.00449
978.344	14.92785
978.515	8.60532
978.686	-44.07393
978.857	-48.28761
979.028	-46.18078
979.2	69.73195
979.371	27.57355
979.542	42.32793
979.713	48.65159
979.884	-18.7898
980.055	73.9483
980.226	-10.36097
980.397	-37.75323
980.568	50.75953
980.739	44.4358
980.91	19.14299
981.081	-20.89695
981.252	-54.60793
981.423	-39.86016
981.594	48.65159
981.765	2.283
981.936	-27.21824
982.106	-65.14129
982.277	-6.14641
982.448	-39.86016
982.619	8.60532
982.79	25.46587
982.96	-29.32529
983.131	-56.71465
983.302	52.86748
983.472	6.49786
983.643	27.57355
983.814	46.54368
983.984	-18.7898
984.155	25.46587
984.326	-10.36097
984.496	33.89672
984.667	6.49786
984.837	23.35822
985.008	-6.14641
985.178	23.35822
985.349	44.4358
985.519	-6.14641
985.69	44.4358
985.86	14.92785
986.031	-90.41875
986.201	65.5157
986.371	-86.2061
986.542	73.9483
986.712	36.00449
986.882	-6.14641
987.053	-12.46822
987.223	27.57355
987.393	-18.7898
987.563	19.14299
987.734	2.283
987.904	-44.07393
988.074	36.00449
988.244	76.05651
988.414	61.29953
988.585	-10.36097
988.755	6.49786
988.925	25.46587
989.095	8.60532
989.265	-25.11117
989.435	12.82031
989.605	48.65159
989.775	8.60532
989.945	-44.07393
990.115	78.16474
990.285	36.00449
990.455	-27.21824
990.625	14.92785
990.795	59.19149
990.965	-1.93175
991.134	2.283
991.304	-12.46822
991.474	23.35822
991.644	69.73195
991.814	-12.46822
991.984	48.65159
992.153	42.32793
992.323	0.17561
992.493	-54.60793
992.662	0.17561
992.832	57.08346
993.002	2.283
993.171	65.5157
993.341	6.49786
993.511	-1.93175
993.68	105.57375
993.85	-25.11117
994.019	12.82031
994.189	0.17561
994.358	-56.71465
994.528	-6.14641
994.697	44.4358
994.867	-98.84375
995.036	-18.7898
995.206	-18.7898
995.375	23.35822
995.544	31.78897
995.714	61.29953
995.883	-52.50118
996.052	145.63975
996.222	10.7128
996.391	-71.461
996.56	-46.18078
996.73	6.49786
996.899	31.78897
997.068	-16.68263
997.237	36.00449
997.406	69.73195
997.576	95.03138
997.745	-39.86016
997.914	-12.46822
998.083	-8.2537
998.252	27.57355
998.421	-69.35446
998.59	0.17561
998.759	-27.21824
998.928	40.22009
999.097	-20.89695
999.266	59.19149
999.435	-35.64629
999.604	-8.2537
999.773	2.283
999.942	-35.64629
1000.111	52.86748
1000.28	-58.82135
1000.448	-1.93175
1000.617	0.17561
1000.786	-18.7898
1000.955	31.78897
1001.124	10.7128
1001.292	54.97546
1001.461	40.22009
1001.63	23.35822
1001.798	52.86748
1001.967	4.39042
1002.136	52.86748
1002.304	-6.14641
1002.473	17.0354
1002.642	-23.00407
1002.81	61.29953
1002.979	54.97546
1003.147	0.17561
1003.316	17.0354
1003.484	-35.64629
1003.653	-31.43231
1003.821	31.78897
1003.99	36.00449
1004.158	-58.82135
1004.327	-31.43231
1004.495	-23.00407
1004.663	-31.43231
1004.832	40.22009
1005	-1.93175
1005.168	-18.7898
1005.337	-20.89695
1005.505	46.54368
1005.673	69.73195
1005.842	50.75953
1006.01	82.38126
1006.178	-18.7898
1006.346	4.39042
1006.514	14.92785
1006.683	31.78897
1006.851	19.14299
1007.019	-23.00407
1007.187	27.57355
1007.355	67.62381
1007.523	65.5157
1007.691	-33.53931
1007.859	76.05651
1008.027	61.29953
1008.195	8.60532
1008.363	40.22009
1008.531	31.78897
1008.699	27.57355
1008.867	2.283
1009.035	38.11228
1009.203	33.89672
1009.37	8.60532
1009.538	14.92785
1009.706	-4.03909
1009.874	2.283
1010.042	42.32793
1010.209	-52.50118
1010.377	36.00449
1010.545	-27.21824
1010.713	14.92785
1010.88	0.17561
1011.048	40.22009
1011.216	-56.71465
1011.383	-16.68263
1011.551	12.82031
1011.718	-50.3944
1011.886	90.81458
1012.054	-20.89695
1012.221	31.78897
1012.389	73.9483
1012.556	-4.03909
1012.724	-8.2537
1012.891	-23.00407
1013.058	4.39042
1013.226	-18.7898
1013.393	-50.3944
1013.561	86.59788
1013.728	44.4358
1013.895	42.32793
1014.063	-103.05609
1014.23	71.84011
1014.397	-81.99334
1014.565	31.78897
1014.732	2.283
1014.899	-27.21824
1015.066	8.60532
1015.233	-4.03909
1015.401	50.75953
1015.568	52.86748
1015.735	-12.46822
1015.902	27.57355
1016.069	-27.21824
1016.236	27.57355
1016.403	84.48956
1016.57	59.19149
1016.737	-6.14641
1016.904	-10.36097
1017.071	8.60532
1017.238	17.0354
1017.405	27.57355
1017.572	84.48956
1017.739	8.60532
1017.906	-58.82135
1018.073	-18.7898
1018.24	19.14299
1018.407	40.22009
1018.573	48.65159
1018.74	-8.2537
1018.907	-1.93175
1019.074	23.35822
1019.241	31.78897
1019.407	19.14299
1019.574	-10.36097
1019.741	-52.50118
1019.907	-12.46822
1020.074	36.00449
1020.241	8.60532
1020.407	76.05651
1020.574	-31.43231
1020.74	-44.07393
1020.907	44.4358
1021.073	17.0354
1021.24	-69.35446
1021.406	-10.36097
1021.573	14.92785
1021.739	-71.461
1021.906	33.89672
1022.072	14.92785
1022.239	57.08346
1022.405	2.283
1022.571	48.65159
1022.738	25.46587
1022.904	-33.53931
1023.07	-10.36097
1023.237	-1.93175
1023.403	27.57355
1023.569	29.68125
1023.735	40.22009
1023.902	-50.3944
1024.068	33.89672
1024.234	-4.03909
1024.4	-6.14641
1024.566	-25.11117
1024.732	14.92785
1024.898	6.49786
1025.065	2.283
1025.231	33.89672
1025.397	-1.93175
1025.563	-23.00407
1025.729	-35.64629
1025.895	57.08346
1026.061	48.65159
1026.227	-23.00407
1026.392	-50.3944
1026.558	-27.21824
1026.724	19.14299
1026.89	-6.14641
1027.056	36.00449
1027.222	-44.07393
1027.388	-8.2537
1027.553	-10.36097
1027.719	19.14299
1027.885	40.22009
1028.051	48.65159
1028.216	-44.07393
1028.382	84.48956
1028.548	23.35822
1028.713	38.11228
1028.879	23.35822
1029.045	-29.32529
1029.21	-69.35446
1029.376	6.49786
1029.541	-4.03909
1029.707	57.08346
1029.873	-41.96706
1030.038	44.4358
1030.204	-48.28761
1030.369	-10.36097
1030.534	25.46587
1030.7	-37.75323
1030.865	76.05651
1031.031	-27.21824
1031.196	-52.50118
1031.361	40.22009
1031.527	12.82031
1031.692	-1.93175
1031.857	-60.92802
1032.023	0.17561
1032.188	-41.96706
1032.353	-8.2537
1032.518	-6.14641
1032.684	17.0354
1032.849	48.65159
1033.014	-10.36097
1033.179	4.39042
1033.344	17.0354
1033.509	10.7128
1033.674	-58.82135
1033.839	-39.86016
1034.004	-27.21824
1034.17	52.86748
1034.335	14.92785
1034.5	48.65159
1034.664	40.22009
1034.829	-27.21824
1034.994	54.97546
1035.159	23.35822
1035.324	-1.93175
1035.489	-25.11117
1035.654	-48.28761
1035.819	40.22009
1035.984	12.82031
1036.148	31.78897
1036.313	-10.36097
1036.478	10.7128
1036.643	21.25059
1036.807	40.22009
1036.972	65.5157
1037.137	-14.57544
1037.301	23.35822
1037.466	57.08346
1037.631	-18.7898
1037.795	-20.89695
1037.96	44.4358
1038.124	8.60532
1038.289	25.46587
1038.454	52.86748
1038.618	-6.14641
1038.783	-18.7898
1038.947	31.78897
1039.111	-27.21824
1039.276	-8.2537
1039.44	-4.03909
1039.605	67.62381
1039.769	-10.36097
1039.933	6.49786
1040.098	-54.60793
1040.262	65.5157
1040.426	8.60532
1040.591	57.08346
1040.755	78.16474
1040.919	61.29953
1041.083	82.38126
1041.248	6.49786
1041.412	33.89672
1041.576	27.57355
1041.74	10.7128
1041.904	19.14299
1042.068	143.53082
1042.232	-71.461
1042.397	-41.96706
1042.561	-29.32529
1042.725	-35.64629
1042.889	73.9483
1043.053	12.82031
1043.217	48.65159
1043.381	-44.07393
1043.544	54.97546
1043.708	33.89672
1043.872	-48.28761
1044.036	-29.32529
1044.2	6.49786
1044.364	-39.86016
1044.528	50.75953
1044.691	-48.28761
1044.855	-1.93175
1045.019	36.00449
1045.183	21.25059
1045.346	-50.3944
1045.51	50.75953
1045.674	-37.75323
1045.837	2.283
1046.001	52.86748
1046.165	-14.57544
1046.328	-18.7898
1046.492	61.29953
1046.655	31.78897
1046.819	-20.89695
1046.983	-16.68263
1047.146	36.00449
1047.31	-23.00407
1047.473	31.78897
1047.636	27.57355
1047.8	-18.7898
1047.963	-12.46822
1048.127	-27.21824
1048.29	6.49786
