Data from Scatter_Coeff_Baseline_USB4F045381__24__0024.txt Node

Date: Thu Feb 13 19:21:03 EST 2025
User: mmckonesweet
Spectrometer: USB4F04538
Trigger mode: 4
Integration Time (sec): 2.400000E-3
Scans to average: 1
Electric dark correction enabled: true
Nonlinearity correction enabled: true
Boxcar width: 0
XAxis mode: Wavelengths
Number of Pixels in Spectrum: 3648
>>>>>Begin Spectral Data<<<<<
345.52	-16.15583
345.736	-16.15583
345.952	-16.15583
346.168	-5.61958
346.384	42.8549
346.6	36.53143
346.816	19.66988
347.032	-73.04089
347.248	-41.44034
347.464	78.6918
347.68	-28.79853
347.896	17.5623
348.112	0.70246
348.328	-7.72688
348.544	-14.04863
348.76	17.5623
348.975	-5.61958
349.191	47.07066
349.407	21.7775
349.623	34.42366
349.839	-16.15583
350.055	-9.83416
350.27	2.80986
350.486	11.23968
350.702	9.13219
350.918	55.50246
351.133	-14.04863
351.349	-7.72688
351.565	53.39447
351.781	-39.33343
351.996	-7.72688
352.212	68.15085
352.428	17.5623
352.644	17.5623
352.859	-68.82782
353.075	53.39447
353.291	76.58356
353.506	-26.69148
353.722	25.99279
353.938	51.28651
354.153	-30.90556
354.369	61.82655
354.584	63.93463
354.8	59.7185
355.016	53.39447
355.231	-28.79853
355.447	32.3159
355.662	-33.01256
355.878	-35.11954
356.093	21.7775
356.309	9.13219
356.524	78.6918
356.74	53.39447
356.955	-33.01256
357.171	55.50246
357.386	80.80005
357.602	17.5623
357.817	4.91728
358.033	36.53143
358.248	30.20817
358.464	23.88513
358.679	-28.79853
358.895	-56.18797
359.11	-18.26301
359.325	-39.33343
359.541	4.91728
359.756	13.34719
359.972	-41.44034
360.187	21.7775
360.402	-45.65407
360.618	53.39447
360.833	-41.44034
361.048	-16.15583
361.264	122.96987
361.479	32.3159
361.694	-20.37016
361.909	59.7185
362.125	9.13219
362.34	47.07066
362.555	-16.15583
362.77	-16.15583
362.986	-1.40491
363.201	25.99279
363.416	-26.69148
363.631	55.50246
363.847	4.91728
364.062	36.53143
364.277	-28.79853
364.492	13.34719
364.707	66.04272
364.922	-33.01256
365.138	76.58356
365.353	47.07066
365.568	25.99279
365.783	49.17857
365.998	0.70246
366.213	-20.37016
366.428	11.23968
366.643	7.02472
366.858	0.70246
367.073	2.80986
367.288	0.70246
367.503	-11.94141
367.718	17.5623
367.933	42.8549
368.148	57.61047
368.363	11.23968
368.578	93.45007
368.793	-45.65407
369.008	21.7775
369.223	30.20817
369.438	47.07066
369.653	89.23331
369.868	4.91728
370.083	118.75249
370.298	17.5623
370.513	-7.72688
370.728	-41.44034
370.943	-11.94141
371.157	13.34719
371.372	42.8549
371.587	-45.65407
371.802	-83.57314
372.017	-22.47729
372.232	-68.82782
372.446	-3.51226
372.661	21.7775
372.876	13.34719
373.091	17.5623
373.306	-11.94141
373.52	53.39447
373.735	55.50246
373.95	-30.90556
374.165	7.02472
374.379	9.13219
374.594	9.13219
374.809	-11.94141
375.023	-68.82782
375.238	87.12496
375.453	19.66988
375.667	-14.04863
375.882	68.15085
376.097	36.53143
376.311	-24.5844
376.526	34.42366
376.741	44.96277
376.955	25.99279
377.17	59.7185
377.384	89.23331
377.599	13.34719
377.813	13.34719
378.028	70.25899
378.242	17.5623
378.457	-3.51226
378.672	34.42366
378.886	42.8549
379.101	57.61047
379.315	68.15085
379.53	-9.83416
379.744	23.88513
379.958	13.34719
380.173	-18.26301
380.387	40.74705
380.602	9.13219
380.816	21.7775
381.031	-7.72688
381.245	57.61047
381.459	34.42366
381.674	17.5623
381.888	-37.2265
382.103	-1.40491
382.317	57.61047
382.531	9.13219
382.746	0.70246
382.96	30.20817
383.174	19.66988
383.388	57.61047
383.603	-7.72688
383.817	9.13219
384.031	-28.79853
384.246	38.63923
384.46	38.63923
384.674	63.93463
384.888	-1.40491
385.103	-45.65407
385.317	-28.79853
385.531	19.66988
385.745	36.53143
385.959	23.88513
386.174	30.20817
386.388	-28.79853
386.602	25.99279
386.816	93.45007
387.03	17.5623
387.244	101.88386
387.458	9.13219
387.672	34.42366
387.887	76.58356
388.101	30.20817
388.315	2.80986
388.529	66.04272
388.743	23.88513
388.957	34.42366
389.171	-22.47729
389.385	76.58356
389.599	61.82655
389.813	-37.2265
390.027	11.23968
390.241	-9.83416
390.455	17.5623
390.669	51.28651
390.883	-16.15583
391.097	25.99279
391.311	13.34719
391.525	-7.72688
391.738	-37.2265
391.952	-16.15583
392.166	-9.83416
392.38	55.50246
392.594	28.10047
392.808	61.82655
393.022	-37.2265
393.236	108.20943
393.449	-11.94141
393.663	11.23968
393.877	61.82655
394.091	0.70246
394.305	-7.72688
394.518	36.53143
394.732	42.8549
394.946	-43.54722
395.16	30.20817
395.373	30.20817
395.587	57.61047
395.801	63.93463
396.015	28.10047
396.228	49.17857
396.442	25.99279
396.656	-24.5844
396.869	11.23968
397.083	-28.79853
397.297	-22.47729
397.51	85.01664
397.724	-30.90556
397.938	36.53143
398.151	-79.36032
398.365	2.80986
398.578	0.70246
398.792	28.10047
399.005	7.02472
399.219	21.7775
399.433	-35.11954
399.646	-41.44034
399.86	-66.72124
400.073	59.7185
400.287	21.7775
400.5	53.39447
400.714	28.10047
400.927	2.80986
401.141	23.88513
401.354	-24.5844
401.567	-20.37016
401.781	-1.40491
401.994	13.34719
402.208	13.34719
402.421	40.74705
402.635	42.8549
402.848	11.23968
403.061	49.17857
403.275	-11.94141
403.488	25.99279
403.701	57.61047
403.915	2.80986
404.128	51.28651
404.341	32.3159
404.555	2.80986
404.768	-33.01256
404.981	28.10047
405.195	34.42366
405.408	19.66988
405.621	38.63923
405.834	0.70246
406.048	21.7775
406.261	44.96277
406.474	2.80986
406.687	19.66988
406.9	9.13219
407.114	-9.83416
407.327	34.42366
407.54	-24.5844
407.753	-20.37016
407.966	66.04272
408.179	68.15085
408.392	-16.15583
408.605	68.15085
408.819	9.13219
409.032	61.82655
409.245	-30.90556
409.458	-26.69148
409.671	55.50246
409.884	-24.5844
410.097	30.20817
410.31	42.8549
410.523	25.99279
410.736	49.17857
410.949	34.42366
411.162	-75.1474
411.375	-3.51226
411.588	17.5623
411.801	9.13219
412.014	47.07066
412.227	30.20817
412.44	-14.04863
412.653	36.53143
412.865	-58.29468
413.078	55.50246
413.291	28.10047
413.504	-14.04863
413.717	44.96277
413.93	17.5623
414.143	30.20817
414.356	19.66988
414.568	89.23331
414.781	9.13219
414.994	-41.44034
415.207	95.55848
415.42	0.70246
415.632	49.17857
415.845	47.07066
416.058	-62.50801
416.271	70.25899
416.483	-28.79853
416.696	9.13219
416.909	-18.26301
417.121	59.7185
417.334	-56.18797
417.547	36.53143
417.759	68.15085
417.972	0.70246
418.185	17.5623
418.397	-58.29468
418.61	9.13219
418.823	61.82655
419.035	-58.29468
419.248	38.63923
419.46	17.5623
419.673	-1.40491
419.885	78.6918
420.098	7.02472
420.311	42.8549
420.523	25.99279
420.736	74.47535
420.948	72.36716
421.161	-33.01256
421.373	-7.72688
421.586	-73.04089
421.798	30.20817
422.01	59.7185
422.223	11.23968
422.435	78.6918
422.648	47.07066
422.86	-5.61958
423.073	-37.2265
423.285	-24.5844
423.497	36.53143
423.71	-16.15583
423.922	-3.51226
424.134	38.63923
424.347	2.80986
424.559	38.63923
424.771	42.8549
424.984	-49.86771
425.196	34.42366
425.408	-45.65407
425.621	-3.51226
425.833	36.53143
426.045	-33.01256
426.257	78.6918
426.47	9.13219
426.682	28.10047
426.894	-37.2265
427.106	-16.15583
427.318	-30.90556
427.531	42.8549
427.743	13.34719
427.955	32.3159
428.167	25.99279
428.379	-66.72124
428.591	0.70246
428.804	17.5623
429.016	-49.86771
429.228	34.42366
429.44	110.318
429.652	-43.54722
429.864	30.20817
430.076	51.28651
430.288	-33.01256
430.5	4.91728
430.712	0.70246
430.924	7.02472
431.136	53.39447
431.348	51.28651
431.56	34.42366
431.772	19.66988
431.984	-26.69148
432.196	120.86117
432.408	-24.5844
432.62	32.3159
432.832	-5.61958
433.044	-28.79853
433.256	68.15085
433.468	55.50246
433.679	87.12496
433.891	44.96277
434.103	-11.94141
434.315	-9.83416
434.527	44.96277
434.739	-16.15583
434.95	-58.29468
435.162	70.25899
435.374	-47.7609
435.586	17.5623
435.798	-7.72688
436.009	-37.2265
436.221	23.88513
436.433	13.34719
436.645	-16.15583
436.856	-28.79853
437.068	23.88513
437.28	118.75249
437.491	34.42366
437.703	42.8549
437.915	21.7775
438.126	11.23968
438.338	25.99279
438.55	25.99279
438.761	-33.01256
438.973	25.99279
439.184	0.70246
439.396	19.66988
439.608	38.63923
439.819	-26.69148
440.031	63.93463
440.242	40.74705
440.454	-16.15583
440.665	59.7185
440.877	-16.15583
441.088	-64.61464
441.3	47.07066
441.511	-5.61958
441.723	13.34719
441.934	85.01664
442.146	-51.97449
442.357	80.80005
442.569	-16.15583
442.78	55.50246
442.991	23.88513
443.203	42.8549
443.414	47.07066
443.626	-37.2265
443.837	17.5623
444.048	-41.44034
444.26	13.34719
444.471	15.45473
444.682	21.7775
444.894	30.20817
445.105	17.5623
445.316	-14.04863
445.528	13.34719
445.739	-33.01256
445.95	34.42366
446.161	-43.54722
446.373	59.7185
446.584	66.04272
446.795	36.53143
447.006	28.10047
447.217	32.3159
447.429	51.28651
447.64	44.96277
447.851	61.82655
448.062	17.5623
448.273	21.7775
448.484	-56.18797
448.695	-37.2265
448.907	122.96987
449.118	-24.5844
449.329	13.34719
449.54	-28.79853
449.751	63.93463
449.962	28.10047
450.173	-7.72688
450.384	66.04272
450.595	21.7775
450.806	17.5623
451.017	76.58356
451.228	72.36716
451.439	-28.79853
451.65	9.13219
451.861	-9.83416
452.072	0.70246
452.283	-14.04863
452.494	-30.90556
452.705	13.34719
452.915	21.7775
453.126	59.7185
453.337	-18.26301
453.548	-3.51226
453.759	17.5623
453.97	9.13219
454.181	74.47535
454.391	19.66988
454.602	0.70246
454.813	30.20817
455.024	34.42366
455.235	127.18734
455.445	15.45473
455.656	38.63923
455.867	42.8549
456.078	19.66988
456.288	-16.15583
456.499	85.01664
456.71	28.10047
456.921	59.7185
457.131	-39.33343
457.342	34.42366
457.553	-33.01256
457.763	51.28651
457.974	23.88513
458.184	2.80986
458.395	36.53143
458.606	15.45473
458.816	9.13219
459.027	36.53143
459.237	25.99279
459.448	-24.5844
459.659	11.23968
459.869	-24.5844
460.08	61.82655
460.29	7.02472
460.501	-33.01256
460.711	76.58356
460.922	-5.61958
461.132	15.45473
461.343	95.55848
461.553	51.28651
461.764	51.28651
461.974	68.15085
462.184	47.07066
462.395	-24.5844
462.605	25.99279
462.816	9.13219
463.026	-7.72688
463.236	-14.04863
463.447	44.96277
463.657	-30.90556
463.867	-79.36032
464.078	63.93463
464.288	106.10089
464.498	-16.15583
464.709	-20.37016
464.919	-20.37016
465.129	-7.72688
465.339	32.3159
465.55	30.20817
465.76	61.82655
465.97	11.23968
466.18	25.99279
466.391	21.7775
466.601	80.80005
466.811	11.23968
467.021	-5.61958
467.231	-62.50801
467.441	-20.37016
467.651	-22.47729
467.862	91.34168
468.072	0.70246
468.282	28.10047
468.492	55.50246
468.702	-5.61958
468.912	2.80986
469.122	74.47535
469.332	59.7185
469.542	-7.72688
469.752	13.34719
469.962	11.23968
470.172	4.91728
470.382	9.13219
470.592	4.91728
470.802	-20.37016
471.012	61.82655
471.222	-41.44034
471.432	2.80986
471.642	13.34719
471.852	7.02472
472.062	38.63923
472.272	38.63923
472.482	17.5623
472.691	-11.94141
472.901	106.10089
473.111	-3.51226
473.321	36.53143
473.531	32.3159
473.741	-1.40491
473.95	28.10047
474.16	11.23968
474.37	28.10047
474.58	-49.86771
474.79	38.63923
474.999	68.15085
475.209	9.13219
475.419	51.28651
475.628	4.91728
475.838	57.61047
476.048	25.99279
476.258	63.93463
476.467	2.80986
476.677	-26.69148
476.886	-9.83416
477.096	9.13219
477.306	-20.37016
477.515	-16.15583
477.725	-24.5844
477.935	9.13219
478.144	-37.2265
478.354	-16.15583
478.563	11.23968
478.773	9.13219
478.982	0.70246
479.192	63.93463
479.401	-121.48383
479.611	36.53143
479.82	13.34719
480.03	-14.04863
480.239	-1.40491
480.449	38.63923
480.658	57.61047
480.868	25.99279
481.077	66.04272
481.287	-16.15583
481.496	0.70246
481.705	38.63923
481.915	30.20817
482.124	11.23968
482.333	44.96277
482.543	-66.72124
482.752	23.88513
482.961	49.17857
483.171	-33.01256
483.38	76.58356
483.589	78.6918
483.799	23.88513
484.008	-3.51226
484.217	59.7185
484.426	-39.33343
484.636	42.8549
484.845	30.20817
485.054	4.91728
485.263	11.23968
485.472	7.02472
485.682	44.96277
485.891	28.10047
486.1	76.58356
486.309	55.50246
486.518	19.66988
486.727	108.20943
486.936	-16.15583
487.146	76.58356
487.355	11.23968
487.564	34.42366
487.773	34.42366
487.982	11.23968
488.191	70.25899
488.4	78.6918
488.609	-26.69148
488.818	-14.04863
489.027	85.01664
489.236	91.34168
489.445	72.36716
489.654	25.99279
489.863	4.91728
490.072	13.34719
490.281	32.3159
490.49	32.3159
490.698	42.8549
490.907	34.42366
491.116	28.10047
491.325	25.99279
491.534	-37.2265
491.743	-16.15583
491.952	-14.04863
492.16	19.66988
492.369	-49.86771
492.578	13.34719
492.787	51.28651
492.996	103.99236
493.204	42.8549
493.413	59.7185
493.622	13.34719
493.831	0.70246
494.039	70.25899
494.248	7.02472
494.457	-9.83416
494.665	-30.90556
494.874	23.88513
495.083	101.88386
495.291	42.8549
495.5	-3.51226
495.709	4.91728
495.917	15.45473
496.126	4.91728
496.335	-24.5844
496.543	32.3159
496.752	-28.79853
496.96	78.6918
497.169	11.23968
497.377	-16.15583
497.586	59.7185
497.794	-39.33343
498.003	36.53143
498.211	17.5623
498.42	-3.51226
498.628	4.91728
498.837	28.10047
499.045	47.07066
499.254	61.82655
499.462	-7.72688
499.671	55.50246
499.879	17.5623
500.087	25.99279
500.296	42.8549
500.504	53.39447
500.713	17.5623
500.921	127.18734
501.129	74.47535
501.338	30.20817
501.546	40.74705
501.754	-28.79853
501.962	13.34719
502.171	7.02472
502.379	34.42366
502.587	17.5623
502.795	-20.37016
503.004	9.13219
503.212	127.18734
503.42	25.99279
503.628	80.80005
503.837	51.28651
504.045	0.70246
504.253	-41.44034
504.461	-22.47729
504.669	51.28651
504.877	-68.82782
505.085	-7.72688
505.294	4.91728
505.502	74.47535
505.71	44.96277
505.918	57.61047
506.126	42.8549
506.334	13.34719
506.542	11.23968
506.75	-26.69148
506.958	17.5623
507.166	28.10047
507.374	30.20817
507.582	13.34719
507.79	-60.40135
507.998	38.63923
508.206	25.99279
508.414	19.66988
508.622	4.91728
508.83	17.5623
509.037	51.28651
509.245	36.53143
509.453	0.70246
509.661	9.13219
509.869	-22.47729
510.077	28.10047
510.285	7.02472
510.492	47.07066
510.7	9.13219
510.908	57.61047
511.116	34.42366
511.324	34.42366
511.531	-62.50801
511.739	59.7185
511.947	25.99279
512.155	34.42366
512.362	-5.61958
512.57	40.74705
512.778	-30.90556
512.985	30.20817
513.193	91.34168
513.401	2.80986
513.608	-28.79853
513.816	-66.72124
514.024	42.8549
514.231	-14.04863
514.439	25.99279
514.646	66.04272
514.854	-24.5844
515.061	34.42366
515.269	-9.83416
515.477	34.42366
515.684	76.58356
515.892	-7.72688
516.099	11.23968
516.307	40.74705
516.514	72.36716
516.722	15.45473
516.929	-11.94141
517.136	44.96277
517.344	68.15085
517.551	66.04272
517.759	40.74705
517.966	0.70246
518.173	-7.72688
518.381	25.99279
518.588	-7.72688
518.796	87.12496
519.003	0.70246
519.21	-1.40491
519.418	-11.94141
519.625	23.88513
519.832	-28.79853
520.039	-1.40491
520.247	-24.5844
520.454	59.7185
520.661	11.23968
520.868	28.10047
521.076	76.58356
521.283	17.5623
521.49	-7.72688
521.697	59.7185
521.904	-3.51226
522.112	-20.37016
522.319	-41.44034
522.526	19.66988
522.733	49.17857
522.94	9.13219
523.147	-14.04863
523.354	21.7775
523.561	13.34719
523.768	-22.47729
523.975	34.42366
524.183	-5.61958
524.39	-5.61958
524.597	55.50246
524.804	59.7185
525.011	38.63923
525.218	21.7775
525.425	2.80986
525.632	42.8549
525.838	53.39447
526.045	-1.40491
526.252	-43.54722
526.459	30.20817
526.666	51.28651
526.873	61.82655
527.08	110.318
527.287	44.96277
527.494	0.70246
527.701	19.66988
527.907	17.5623
528.114	68.15085
528.321	-45.65407
528.528	-33.01256
528.735	36.53143
528.941	-49.86771
529.148	15.45473
529.355	-3.51226
529.562	-24.5844
529.768	21.7775
529.975	51.28651
530.182	55.50246
530.388	59.7185
530.595	53.39447
530.802	42.8549
531.008	-22.47729
531.215	15.45473
531.422	42.8549
531.628	-24.5844
531.835	-5.61958
532.042	47.07066
532.248	80.80005
532.455	59.7185
532.661	44.96277
532.868	19.66988
533.074	21.7775
533.281	47.07066
533.487	0.70246
533.694	-24.5844
533.9	38.63923
534.107	28.10047
534.313	32.3159
534.52	152.49392
534.726	-14.04863
534.933	11.23968
535.139	42.8549
535.345	13.34719
535.552	38.63923
535.758	-66.72124
535.965	-18.26301
536.171	-14.04863
536.377	0.70246
536.584	21.7775
536.79	19.66988
536.996	44.96277
537.203	97.66692
537.409	0.70246
537.615	-58.29468
537.821	13.34719
538.028	40.74705
538.234	44.96277
538.44	9.13219
538.646	51.28651
538.853	-75.1474
539.059	85.01664
539.265	-16.15583
539.471	163.03922
539.677	13.34719
539.883	28.10047
540.09	4.91728
540.296	-49.86771
540.502	0.70246
540.708	-9.83416
540.914	38.63923
541.12	44.96277
541.326	137.73137
541.532	118.75249
541.738	13.34719
541.944	68.15085
542.15	-3.51226
542.356	17.5623
542.562	-16.15583
542.768	-7.72688
542.974	7.02472
543.18	-7.72688
543.386	89.23331
543.592	21.7775
543.798	30.20817
544.004	59.7185
544.21	42.8549
544.415	28.10047
544.621	30.20817
544.827	-7.72688
545.033	38.63923
545.239	72.36716
545.445	17.5623
545.651	49.17857
545.856	-7.72688
546.062	38.63923
546.268	11.23968
546.474	36.53143
546.679	19.66988
546.885	30.20817
547.091	47.07066
547.297	55.50246
547.502	4.91728
547.708	38.63923
547.914	87.12496
548.119	68.15085
548.325	0.70246
548.531	30.20817
548.736	38.63923
548.942	68.15085
549.147	9.13219
549.353	28.10047
549.559	53.39447
549.764	-3.51226
549.97	11.23968
550.175	34.42366
550.381	44.96277
550.586	-20.37016
550.792	15.45473
550.997	167.25749
551.203	36.53143
551.408	55.50246
551.614	55.50246
551.819	63.93463
552.025	63.93463
552.23	28.10047
552.435	-33.01256
552.641	-16.15583
552.846	66.04272
553.052	13.34719
553.257	28.10047
553.462	38.63923
553.668	53.39447
553.873	30.20817
554.078	-20.37016
554.283	42.8549
554.489	30.20817
554.694	63.93463
554.899	28.10047
555.105	42.8549
555.31	51.28651
555.515	30.20817
555.72	-51.97449
555.925	21.7775
556.131	17.5623
556.336	7.02472
556.541	28.10047
556.746	53.39447
556.951	125.07859
557.156	19.66988
557.361	118.75249
557.567	89.23331
557.772	30.20817
557.977	-35.11954
558.182	76.58356
558.387	42.8549
558.592	-5.61958
558.797	23.88513
559.002	32.3159
559.207	63.93463
559.412	-56.18797
559.617	59.7185
559.822	7.02472
560.027	-33.01256
560.232	9.13219
560.437	95.55848
560.642	-33.01256
560.847	93.45007
561.051	13.34719
561.256	51.28651
561.461	55.50246
561.666	-24.5844
561.871	93.45007
562.076	47.07066
562.281	-45.65407
562.485	68.15085
562.69	57.61047
562.895	-62.50801
563.1	17.5623
563.305	34.42366
563.509	78.6918
563.714	30.20817
563.919	112.42659
564.123	15.45473
564.328	61.82655
564.533	66.04272
564.737	-5.61958
564.942	80.80005
565.147	42.8549
565.351	11.23968
565.556	34.42366
565.761	74.47535
565.965	21.7775
566.17	76.58356
566.374	13.34719
566.579	-33.01256
566.784	82.90833
566.988	40.74705
567.193	21.7775
567.397	34.42366
567.602	42.8549
567.806	57.61047
568.011	-83.57314
568.215	76.58356
568.42	-43.54722
568.624	-49.86771
568.828	53.39447
569.033	17.5623
569.237	106.10089
569.442	76.58356
569.646	127.18734
569.85	15.45473
570.055	51.28651
570.259	-14.04863
570.463	32.3159
570.668	38.63923
570.872	-33.01256
571.076	-3.51226
571.281	-16.15583
571.485	25.99279
571.689	93.45007
571.893	68.15085
572.098	34.42366
572.302	42.8549
572.506	38.63923
572.71	28.10047
572.914	51.28651
573.119	53.39447
573.323	93.45007
573.527	116.64384
573.731	47.07066
573.935	21.7775
574.139	32.3159
574.343	68.15085
574.547	47.07066
574.751	30.20817
574.955	-39.33343
575.159	55.50246
575.364	-5.61958
575.568	99.77538
575.772	36.53143
575.976	74.47535
576.18	-33.01256
576.383	19.66988
576.587	17.5623
576.791	34.42366
576.995	0.70246
577.199	32.3159
577.403	-30.90556
577.607	63.93463
577.811	44.96277
578.015	72.36716
578.219	80.80005
578.422	28.10047
578.626	25.99279
578.83	-16.15583
579.034	89.23331
579.238	116.64384
579.442	34.42366
579.645	36.53143
579.849	93.45007
580.053	44.96277
580.257	59.7185
580.46	80.80005
580.664	11.23968
580.868	51.28651
581.071	25.99279
581.275	51.28651
581.479	38.63923
581.682	85.01664
581.886	72.36716
582.09	44.96277
582.293	63.93463
582.497	55.50246
582.7	85.01664
582.904	36.53143
583.107	34.42366
583.311	47.07066
583.515	17.5623
583.718	28.10047
583.922	0.70246
584.125	63.93463
584.329	82.90833
584.532	59.7185
584.735	93.45007
584.939	74.47535
585.142	30.20817
585.346	-5.61958
585.549	32.3159
585.753	42.8549
585.956	49.17857
586.159	95.55848
586.363	15.45473
586.566	-5.61958
586.769	9.13219
586.973	59.7185
587.176	112.42659
587.379	0.70246
587.582	21.7775
587.786	30.20817
587.989	42.8549
588.192	30.20817
588.395	61.82655
588.599	63.93463
588.802	70.25899
589.005	17.5623
589.208	68.15085
589.411	68.15085
589.615	59.7185
589.818	-7.72688
590.021	36.53143
590.224	59.7185
590.427	80.80005
590.63	61.82655
590.833	59.7185
591.036	28.10047
591.239	85.01664
591.442	114.5352
591.645	61.82655
591.848	21.7775
592.051	19.66988
592.254	47.07066
592.457	63.93463
592.66	66.04272
592.863	36.53143
593.066	15.45473
593.269	-16.15583
593.472	55.50246
593.675	34.42366
593.878	146.16698
594.081	91.34168
594.284	42.8549
594.486	42.8549
594.689	0.70246
594.892	93.45007
595.095	40.74705
595.298	47.07066
595.5	19.66988
595.703	101.88386
595.906	85.01664
596.109	76.58356
596.311	152.49392
596.514	34.42366
596.717	38.63923
596.92	78.6918
597.122	106.10089
597.325	82.90833
597.528	57.61047
597.73	38.63923
597.933	70.25899
598.136	42.8549
598.338	87.12496
598.541	17.5623
598.743	53.39447
598.946	95.55848
599.148	173.58505
599.351	19.66988
599.554	44.96277
599.756	55.50246
599.959	-5.61958
600.161	-7.72688
600.363	76.58356
600.566	13.34719
600.768	34.42366
600.971	68.15085
601.173	106.10089
601.376	-37.2265
601.578	118.75249
601.78	44.96277
601.983	118.75249
602.185	0.70246
602.388	110.318
602.59	63.93463
602.792	59.7185
602.995	11.23968
603.197	85.01664
603.399	0.70246
603.601	-20.37016
603.804	76.58356
604.006	87.12496
604.208	114.5352
604.41	76.58356
604.613	38.63923
604.815	95.55848
605.017	152.49392
605.219	72.36716
605.421	49.17857
605.623	42.8549
605.826	72.36716
606.028	93.45007
606.23	28.10047
606.432	-3.51226
606.634	89.23331
606.836	68.15085
607.038	61.82655
607.24	131.40488
607.442	51.28651
607.644	51.28651
607.846	78.6918
608.048	120.86117
608.25	13.34719
608.452	36.53143
608.654	144.05805
608.856	101.88386
609.058	150.38492
609.26	15.45473
609.462	72.36716
609.664	9.13219
609.866	59.7185
610.067	59.7185
610.269	95.55848
610.471	70.25899
610.673	19.66988
610.875	11.23968
611.077	47.07066
611.278	89.23331
611.48	-11.94141
611.682	80.80005
611.884	55.50246
612.085	114.5352
612.287	78.6918
612.489	68.15085
612.69	101.88386
612.892	91.34168
613.094	120.86117
613.295	34.42366
613.497	106.10089
613.699	85.01664
613.9	108.20943
614.102	120.86117
614.304	70.25899
614.505	32.3159
614.707	34.42366
614.908	101.88386
615.11	17.5623
615.311	101.88386
615.513	42.8549
615.714	36.53143
615.916	74.47535
616.117	101.88386
616.319	80.80005
616.52	59.7185
616.722	55.50246
616.923	91.34168
617.124	112.42659
617.326	57.61047
617.527	110.318
617.729	61.82655
617.93	68.15085
618.131	82.90833
618.333	32.3159
618.534	47.07066
618.735	101.88386
618.937	34.42366
619.138	110.318
619.339	87.12496
619.54	93.45007
619.742	135.62252
619.943	133.51369
620.144	158.82104
620.345	51.28651
620.546	59.7185
620.748	133.51369
620.949	85.01664
621.15	51.28651
621.351	89.23331
621.552	55.50246
621.753	87.12496
621.954	97.66692
622.155	146.16698
622.356	34.42366
622.558	76.58356
622.759	129.2961
622.96	148.27594
623.161	49.17857
623.362	85.01664
623.563	61.82655
623.764	4.91728
623.965	106.10089
624.166	44.96277
624.366	93.45007
624.567	91.34168
624.768	118.75249
624.969	42.8549
625.17	173.58505
625.371	44.96277
625.572	68.15085
625.773	129.2961
625.973	122.96987
626.174	91.34168
626.375	95.55848
626.576	116.64384
626.777	68.15085
626.977	78.6918
627.178	72.36716
627.379	118.75249
627.58	108.20943
627.78	42.8549
627.981	72.36716
628.182	93.45007
628.382	106.10089
628.583	89.23331
628.784	23.88513
628.984	63.93463
629.185	139.84024
629.386	72.36716
629.586	112.42659
629.787	131.40488
629.987	30.20817
630.188	129.2961
630.388	57.61047
630.589	68.15085
630.79	76.58356
630.99	116.64384
631.191	19.66988
631.391	101.88386
631.591	169.36666
631.792	103.99236
631.992	186.24073
632.193	30.20817
632.393	146.16698
632.594	95.55848
632.794	137.73137
632.994	95.55848
633.195	70.25899
633.395	61.82655
633.595	129.2961
633.796	85.01664
633.996	25.99279
634.196	87.12496
634.397	118.75249
634.597	85.01664
634.797	72.36716
634.997	51.28651
635.198	146.16698
635.398	127.18734
635.598	87.12496
635.798	101.88386
635.998	78.6918
636.199	144.05805
636.399	114.5352
636.599	129.2961
636.799	68.15085
636.999	61.82655
637.199	163.03922
637.399	135.62252
637.599	114.5352
637.799	57.61047
637.999	135.62252
638.199	160.93012
638.399	110.318
638.599	110.318
638.799	116.64384
638.999	120.86117
639.199	118.75249
639.399	61.82655
639.599	186.24073
639.799	167.25749
639.999	154.60294
640.199	150.38492
640.399	36.53143
640.599	112.42659
640.799	106.10089
640.998	125.07859
641.198	85.01664
641.398	118.75249
641.598	163.03922
641.798	186.24073
641.997	148.27594
642.197	93.45007
642.397	93.45007
642.597	144.05805
642.796	89.23331
642.996	87.12496
643.196	160.93012
643.395	101.88386
643.595	122.96987
643.795	205.22562
643.994	91.34168
644.194	63.93463
644.394	93.45007
644.593	47.07066
644.793	85.01664
644.992	129.2961
645.192	118.75249
645.392	144.05805
645.591	110.318
645.791	156.71198
645.99	68.15085
646.19	76.58356
646.389	97.66692
646.589	177.80353
646.788	110.318
646.987	188.35008
647.187	179.9128
647.386	152.49392
647.586	66.04272
647.785	114.5352
647.984	186.24073
648.184	103.99236
648.383	148.27594
648.582	131.40488
648.782	169.36666
648.981	173.58505
649.18	150.38492
649.38	76.58356
649.579	63.93463
649.778	101.88386
649.977	114.5352
650.177	127.18734
650.376	222.10244
650.575	228.43158
650.774	59.7185
650.973	110.318
651.173	89.23331
651.372	110.318
651.571	146.16698
651.77	188.35008
651.969	127.18734
652.168	154.60294
652.367	139.84024
652.566	160.93012
652.765	177.80353
652.964	114.5352
653.163	211.55428
653.362	112.42659
653.561	139.84024
653.76	127.18734
653.959	114.5352
654.158	139.84024
654.357	205.22562
654.556	108.20943
654.755	177.80353
654.954	144.05805
655.153	144.05805
655.352	44.96277
655.551	173.58505
655.749	186.24073
655.948	63.93463
656.147	173.58505
656.346	192.56884
656.545	120.86117
656.743	160.93012
656.942	163.03922
657.141	66.04272
657.34	135.62252
657.538	106.10089
657.737	154.60294
657.936	120.86117
658.135	167.25749
658.333	129.2961
658.532	144.05805
658.731	129.2961
658.929	72.36716
659.128	144.05805
659.326	114.5352
659.525	141.94913
659.724	131.40488
659.922	165.14835
660.121	114.5352
660.319	116.64384
660.518	203.11611
660.716	152.49392
660.915	144.05805
661.113	99.77538
661.312	211.55428
661.51	190.45945
661.709	177.80353
661.907	169.36666
662.105	135.62252
662.304	203.11611
662.502	144.05805
662.701	190.45945
662.899	148.27594
663.097	257.96985
663.296	169.36666
663.494	173.58505
663.692	72.36716
663.891	169.36666
664.089	72.36716
664.287	165.14835
664.485	201.00661
664.684	190.45945
664.882	80.80005
665.08	171.47585
665.278	144.05805
665.476	177.80353
665.675	211.55428
665.873	186.24073
666.071	103.99236
666.269	173.58505
666.467	106.10089
666.665	110.318
666.863	177.80353
667.061	154.60294
667.259	148.27594
667.457	160.93012
667.655	215.77348
667.853	205.22562
668.051	160.93012
668.249	175.69428
668.447	156.71198
668.645	177.80353
668.843	186.24073
669.041	141.94913
669.239	236.87069
669.437	129.2961
669.635	228.43158
669.833	156.71198
670.031	127.18734
670.229	179.9128
670.426	127.18734
670.624	152.49392
670.822	135.62252
671.02	192.56884
671.218	160.93012
671.415	165.14835
671.613	144.05805
671.811	201.00661
672.009	270.63026
672.206	116.64384
672.404	211.55428
672.602	179.9128
672.799	217.88312
672.997	163.03922
673.195	152.49392
673.392	182.02209
673.59	127.18734
673.788	93.45007
673.985	219.99277
674.183	146.16698
674.38	148.27594
674.578	270.63026
674.775	144.05805
674.973	295.95309
675.17	177.80353
675.368	150.38492
675.565	207.33515
675.763	59.7185
675.96	146.16698
676.158	219.99277
676.355	144.05805
676.553	207.33515
676.75	108.20943
676.947	154.60294
677.145	213.66387
677.342	186.24073
677.539	156.71198
677.737	163.03922
677.934	196.78769
678.131	215.77348
678.329	169.36666
678.526	165.14835
678.723	171.47585
678.92	228.43158
679.118	194.67826
679.315	175.69428
679.512	171.47585
679.709	169.36666
679.906	213.66387
680.104	264.29997
680.301	165.14835
680.498	144.05805
680.695	163.03922
680.892	236.87069
681.089	122.96987
681.286	167.25749
681.483	158.82104
681.68	209.44471
681.877	110.318
682.075	135.62252
682.272	213.66387
682.469	276.96072
682.665	203.11611
682.862	236.87069
683.059	228.43158
683.256	232.6511
683.453	198.89714
683.65	234.76089
683.847	163.03922
684.044	156.71198
684.241	150.38492
684.438	186.24073
684.635	241.09037
684.831	188.35008
685.028	228.43158
685.225	154.60294
685.422	93.45007
685.619	188.35008
685.815	253.74986
686.012	291.73244
686.209	257.96985
686.405	228.43158
686.602	141.94913
686.799	141.94913
686.996	238.98052
687.192	154.60294
687.389	238.98052
687.586	257.96985
687.782	188.35008
687.979	190.45945
688.175	154.60294
688.372	203.11611
688.568	211.55428
688.765	260.07987
688.962	152.49392
689.158	203.11611
689.355	219.99277
689.551	226.32184
689.748	139.84024
689.944	257.96985
690.14	160.93012
690.337	224.21213
690.533	203.11611
690.73	230.54133
690.926	101.88386
691.123	141.94913
691.319	78.6918
691.515	144.05805
691.712	219.99277
691.908	274.85054
692.104	103.99236
692.301	169.36666
692.497	129.2961
692.693	135.62252
692.889	118.75249
693.086	190.45945
693.282	238.98052
693.478	137.73137
693.674	203.11611
693.87	230.54133
694.067	224.21213
694.263	190.45945
694.459	209.44471
694.655	219.99277
694.851	241.09037
695.047	196.78769
695.243	196.78769
695.439	177.80353
695.635	190.45945
695.831	150.38492
696.027	184.1314
696.224	219.99277
696.42	211.55428
696.615	211.55428
696.811	186.24073
697.007	177.80353
697.203	243.20024
697.399	255.85985
697.595	144.05805
697.791	249.52996
697.987	160.93012
698.183	238.98052
698.379	156.71198
698.575	194.67826
698.77	228.43158
698.966	243.20024
699.162	194.67826
699.358	146.16698
699.554	213.66387
699.749	245.31013
699.945	287.51185
700.141	211.55428
700.337	232.6511
700.532	215.77348
700.728	165.14835
700.924	160.93012
701.119	169.36666
701.315	152.49392
701.511	289.62213
701.706	262.18991
701.902	106.10089
702.097	160.93012
702.293	213.66387
702.489	194.67826
702.684	196.78769
702.88	232.6511
703.075	211.55428
703.271	247.42003
703.466	262.18991
703.662	287.51185
703.857	93.45007
704.053	211.55428
704.248	203.11611
704.443	215.77348
704.639	211.55428
704.834	274.85054
705.03	156.71198
705.225	190.45945
705.42	160.93012
705.616	262.18991
705.811	129.2961
706.006	260.07987
706.202	219.99277
706.397	207.33515
706.592	283.29134
706.787	188.35008
706.983	163.03922
707.178	215.77348
707.373	228.43158
707.568	165.14835
707.763	209.44471
707.959	186.24073
708.154	194.67826
708.349	222.10244
708.544	184.1314
708.739	281.18111
708.934	201.00661
709.129	298.06345
709.324	219.99277
709.519	192.56884
709.714	194.67826
709.909	194.67826
710.104	144.05805
710.299	219.99277
710.494	165.14835
710.689	179.9128
710.884	247.42003
711.079	236.87069
711.274	194.67826
711.469	219.99277
711.664	169.36666
711.859	217.88312
712.054	211.55428
712.249	173.58505
712.443	211.55428
712.638	175.69428
712.833	194.67826
713.028	249.52996
713.223	253.74986
713.417	295.95309
713.612	287.51185
713.807	156.71198
714.002	177.80353
714.196	241.09037
714.391	179.9128
714.586	245.31013
714.78	201.00661
714.975	232.6511
715.17	171.47585
715.364	268.52014
715.559	213.66387
715.754	251.6399
715.948	222.10244
716.143	194.67826
716.337	213.66387
716.532	173.58505
716.726	203.11611
716.921	274.85054
717.115	182.02209
717.31	245.31013
717.504	219.99277
717.699	175.69428
717.893	241.09037
718.088	203.11611
718.282	224.21213
718.476	333.94227
718.671	255.85985
718.865	251.6399
719.059	158.82104
719.254	279.07091
719.448	230.54133
719.642	285.40159
719.837	209.44471
720.031	224.21213
720.225	192.56884
720.419	207.33515
720.614	135.62252
720.808	148.27594
721.002	167.25749
721.196	196.78769
721.39	203.11611
721.585	167.25749
721.779	238.98052
721.973	101.88386
722.167	192.56884
722.361	245.31013
722.555	249.52996
722.749	289.62213
722.943	148.27594
723.137	226.32184
723.331	203.11611
723.525	295.95309
723.719	188.35008
723.913	289.62213
724.107	139.84024
724.301	228.43158
724.495	158.82104
724.689	321.27857
724.883	228.43158
725.077	272.74039
725.271	177.80353
725.465	177.80353
725.659	118.75249
725.853	241.09037
726.046	226.32184
726.24	211.55428
726.434	186.24073
726.628	236.87069
726.822	247.42003
727.015	270.63026
727.209	230.54133
727.403	236.87069
727.596	207.33515
727.79	262.18991
727.984	188.35008
728.177	169.36666
728.371	215.77348
728.565	156.71198
728.758	222.10244
728.952	293.84276
729.146	179.9128
729.339	287.51185
729.533	122.96987
729.726	264.29997
729.92	194.67826
730.113	287.51185
730.307	304.39463
730.5	262.18991
730.694	198.89714
730.887	285.40159
731.081	205.22562
731.274	270.63026
731.468	173.58505
731.661	148.27594
731.854	215.77348
732.048	253.74986
732.241	211.55428
732.435	228.43158
732.628	238.98052
732.821	243.20024
733.014	270.63026
733.208	211.55428
733.401	279.07091
733.594	228.43158
733.788	163.03922
733.981	211.55428
734.174	272.74039
734.367	198.89714
734.56	253.74986
734.754	272.74039
734.947	245.31013
735.14	247.42003
735.333	257.96985
735.526	268.52014
735.719	215.77348
735.912	287.51185
736.105	253.74986
736.298	281.18111
736.491	179.9128
736.684	222.10244
736.877	203.11611
737.07	118.75249
737.263	247.42003
737.456	344.49584
737.649	222.10244
737.842	262.18991
738.035	186.24073
738.228	236.87069
738.421	232.6511
738.614	270.63026
738.807	238.98052
739	253.74986
739.192	247.42003
739.385	321.27857
739.578	255.85985
739.771	251.6399
739.964	241.09037
740.156	266.41005
740.349	283.29134
740.542	260.07987
740.735	262.18991
740.927	213.66387
741.12	196.78769
741.313	247.42003
741.505	262.18991
741.698	224.21213
741.891	177.80353
742.083	270.63026
742.276	219.99277
742.468	222.10244
742.661	215.77348
742.854	238.98052
743.046	281.18111
743.239	266.41005
743.431	232.6511
743.624	228.43158
743.816	245.31013
744.009	222.10244
744.201	236.87069
744.393	198.89714
744.586	260.07987
744.778	285.40159
744.971	270.63026
745.163	255.85985
745.355	253.74986
745.548	234.76089
745.74	160.93012
745.932	228.43158
746.125	182.02209
746.317	238.98052
746.509	194.67826
746.702	144.05805
746.894	203.11611
747.086	230.54133
747.278	245.31013
747.471	234.76089
747.663	262.18991
747.855	329.72097
748.047	207.33515
748.239	230.54133
748.431	222.10244
748.623	241.09037
748.815	222.10244
749.008	241.09037
749.2	226.32184
749.392	238.98052
749.584	274.85054
749.776	321.27857
749.968	249.52996
750.16	289.62213
750.352	264.29997
750.544	198.89714
750.736	219.99277
750.928	274.85054
751.12	243.20024
751.311	232.6511
751.503	198.89714
751.695	139.84024
751.887	255.85985
752.079	224.21213
752.271	219.99277
752.463	219.99277
752.654	194.67826
752.846	247.42003
753.038	219.99277
753.23	146.16698
753.421	289.62213
753.613	262.18991
753.805	217.88312
753.997	264.29997
754.188	274.85054
754.38	249.52996
754.572	219.99277
754.763	238.98052
754.955	211.55428
755.146	289.62213
755.338	213.66387
755.53	276.96072
755.721	222.10244
755.913	217.88312
756.104	262.18991
756.296	251.6399
756.487	350.82819
756.679	255.85985
756.87	201.00661
757.062	234.76089
757.253	190.45945
757.445	255.85985
757.636	196.78769
757.827	283.29134
758.019	308.61551
758.21	249.52996
758.401	270.63026
758.593	203.11611
758.784	228.43158
758.975	177.80353
759.167	287.51185
759.358	194.67826
759.549	219.99277
759.74	179.9128
759.932	179.9128
760.123	249.52996
760.314	139.84024
760.505	276.96072
760.696	203.11611
760.888	198.89714
761.079	245.31013
761.27	205.22562
761.461	152.49392
761.652	211.55428
761.843	213.66387
762.034	198.89714
762.225	163.03922
762.416	192.56884
762.607	219.99277
762.798	253.74986
762.989	222.10244
763.18	177.80353
763.371	257.96985
763.562	279.07091
763.753	264.29997
763.944	184.1314
764.135	228.43158
764.326	207.33515
764.517	238.98052
764.708	230.54133
764.899	201.00661
765.089	253.74986
765.28	217.88312
765.471	289.62213
765.662	272.74039
765.853	184.1314
766.043	201.00661
766.234	207.33515
766.425	257.96985
766.615	213.66387
766.806	188.35008
766.997	205.22562
767.187	205.22562
767.378	188.35008
767.569	182.02209
767.759	245.31013
767.95	262.18991
768.141	163.03922
768.331	266.41005
768.522	118.75249
768.712	165.14835
768.903	186.24073
769.093	236.87069
769.284	156.71198
769.474	173.58505
769.665	186.24073
769.855	219.99277
770.046	152.49392
770.236	245.31013
770.426	186.24073
770.617	222.10244
770.807	266.41005
770.998	158.82104
771.188	241.09037
771.378	160.93012
771.569	266.41005
771.759	236.87069
771.949	160.93012
772.139	236.87069
772.33	238.98052
772.52	190.45945
772.71	213.66387
772.9	203.11611
773.09	188.35008
773.281	238.98052
773.471	245.31013
773.661	264.29997
773.851	262.18991
774.041	154.60294
774.231	205.22562
774.421	165.14835
774.611	257.96985
774.802	217.88312
774.992	192.56884
775.182	150.38492
775.372	236.87069
775.562	182.02209
775.752	173.58505
775.942	177.80353
776.131	253.74986
776.321	186.24073
776.511	188.35008
776.701	215.77348
776.891	139.84024
777.081	150.38492
777.271	139.84024
777.461	177.80353
777.651	213.66387
777.84	211.55428
778.03	192.56884
778.22	108.20943
778.41	266.41005
778.599	177.80353
778.789	135.62252
778.979	122.96987
779.169	198.89714
779.358	238.98052
779.548	139.84024
779.738	196.78769
779.927	179.9128
780.117	141.94913
780.307	224.21213
780.496	137.73137
780.686	163.03922
780.875	205.22562
781.065	232.6511
781.254	163.03922
781.444	163.03922
781.633	171.47585
781.823	207.33515
782.012	144.05805
782.202	211.55428
782.391	190.45945
782.581	245.31013
782.77	190.45945
782.96	101.88386
783.149	283.29134
783.338	207.33515
783.528	196.78769
783.717	209.44471
783.906	207.33515
784.096	171.47585
784.285	211.55428
784.474	127.18734
784.663	188.35008
784.853	190.45945
785.042	169.36666
785.231	169.36666
785.42	146.16698
785.61	249.52996
785.799	169.36666
785.988	139.84024
786.177	177.80353
786.366	144.05805
786.555	160.93012
786.744	165.14835
786.933	186.24073
787.122	173.58505
787.312	141.94913
787.501	219.99277
787.69	127.18734
787.879	160.93012
788.068	196.78769
788.257	173.58505
788.445	179.9128
788.634	148.27594
788.823	148.27594
789.012	80.80005
789.201	127.18734
789.39	177.80353
789.579	236.87069
789.768	226.32184
789.957	222.10244
790.145	139.84024
790.334	131.40488
790.523	78.6918
790.712	78.6918
790.9	72.36716
791.089	201.00661
791.278	173.58505
791.467	190.45945
791.655	188.35008
791.844	139.84024
792.033	179.9128
792.221	171.47585
792.41	139.84024
792.599	209.44471
792.787	165.14835
792.976	148.27594
793.164	165.14835
793.353	82.90833
793.541	190.45945
793.73	135.62252
793.918	167.25749
794.107	215.77348
794.295	219.99277
794.484	82.90833
794.672	205.22562
794.861	160.93012
795.049	156.71198
795.238	110.318
795.426	179.9128
795.614	135.62252
795.803	241.09037
795.991	133.51369
796.179	135.62252
796.368	160.93012
796.556	156.71198
796.744	215.77348
796.932	114.5352
797.121	110.318
797.309	129.2961
797.497	182.02209
797.685	173.58505
797.874	165.14835
798.062	190.45945
798.25	135.62252
798.438	201.00661
798.626	194.67826
798.814	122.96987
799.002	152.49392
799.19	186.24073
799.378	131.40488
799.566	122.96987
799.755	114.5352
799.943	152.49392
800.131	114.5352
800.318	32.3159
800.506	188.35008
800.694	137.73137
800.882	118.75249
801.07	160.93012
801.258	175.69428
801.446	139.84024
801.634	257.96985
801.822	148.27594
802.01	173.58505
802.197	177.80353
802.385	165.14835
802.573	169.36666
802.761	129.2961
802.949	122.96987
803.136	171.47585
803.324	108.20943
803.512	137.73137
803.699	135.62252
803.887	95.55848
804.075	146.16698
804.262	135.62252
804.45	192.56884
804.638	173.58505
804.825	127.18734
805.013	148.27594
805.201	112.42659
805.388	110.318
805.576	171.47585
805.763	154.60294
805.951	186.24073
806.138	110.318
806.326	154.60294
806.513	106.10089
806.701	108.20943
806.888	144.05805
807.075	152.49392
807.263	228.43158
807.45	171.47585
807.638	110.318
807.825	169.36666
808.012	135.62252
808.2	139.84024
808.387	194.67826
808.574	160.93012
808.761	95.55848
808.949	144.05805
809.136	177.80353
809.323	163.03922
809.51	148.27594
809.698	160.93012
809.885	160.93012
810.072	137.73137
810.259	205.22562
810.446	148.27594
810.633	196.78769
810.82	135.62252
811.008	118.75249
811.195	135.62252
811.382	194.67826
811.569	129.2961
811.756	148.27594
811.943	122.96987
812.13	131.40488
812.317	152.49392
812.504	188.35008
812.691	165.14835
812.878	53.39447
813.064	129.2961
813.251	182.02209
813.438	76.58356
813.625	163.03922
813.812	141.94913
813.999	211.55428
814.186	144.05805
814.372	190.45945
814.559	205.22562
814.746	57.61047
814.933	139.84024
815.12	148.27594
815.306	213.66387
815.493	219.99277
815.68	234.76089
815.866	122.96987
816.053	135.62252
816.24	154.60294
816.426	215.77348
816.613	135.62252
816.799	160.93012
816.986	131.40488
817.173	171.47585
817.359	203.11611
817.546	186.24073
817.732	74.47535
817.919	196.78769
818.105	72.36716
818.292	144.05805
818.478	148.27594
818.665	148.27594
818.851	163.03922
819.037	103.99236
819.224	118.75249
819.41	146.16698
819.597	211.55428
819.783	152.49392
819.969	106.10089
820.156	182.02209
820.342	190.45945
820.528	163.03922
820.714	173.58505
820.901	163.03922
821.087	203.11611
821.273	154.60294
821.459	135.62252
821.646	106.10089
821.832	184.1314
822.018	165.14835
822.204	211.55428
822.39	148.27594
822.576	194.67826
822.762	230.54133
822.948	192.56884
823.134	179.9128
823.32	131.40488
823.507	253.74986
823.693	184.1314
823.879	247.42003
824.065	182.02209
824.25	207.33515
824.436	154.60294
824.622	141.94913
824.808	80.80005
824.994	186.24073
825.18	110.318
825.366	245.31013
825.552	82.90833
825.738	203.11611
825.923	144.05805
826.109	224.21213
826.295	196.78769
826.481	146.16698
826.667	127.18734
826.852	169.36666
827.038	150.38492
827.224	160.93012
827.409	68.15085
827.595	131.40488
827.781	99.77538
827.966	213.66387
828.152	163.03922
828.338	198.89714
828.523	63.93463
828.709	177.80353
828.894	160.93012
829.08	139.84024
829.266	97.66692
829.451	226.32184
829.637	148.27594
829.822	146.16698
830.008	137.73137
830.193	51.28651
830.378	89.23331
830.564	177.80353
830.749	165.14835
830.935	76.58356
831.12	224.21213
831.305	141.94913
831.491	196.78769
831.676	99.77538
831.861	171.47585
832.047	179.9128
832.232	135.62252
832.417	205.22562
832.602	173.58505
832.788	152.49392
832.973	186.24073
833.158	118.75249
833.343	148.27594
833.528	72.36716
833.714	112.42659
833.899	129.2961
834.084	163.03922
834.269	34.42366
834.454	203.11611
834.639	72.36716
834.824	125.07859
835.009	188.35008
835.194	76.58356
835.379	148.27594
835.564	167.25749
835.749	201.00661
835.934	156.71198
836.119	209.44471
836.304	196.78769
836.489	245.31013
836.674	177.80353
836.859	171.47585
837.044	135.62252
837.228	118.75249
837.413	122.96987
837.598	192.56884
837.783	101.88386
837.968	146.16698
838.152	97.66692
838.337	160.93012
838.522	106.10089
838.707	144.05805
838.891	106.10089
839.076	110.318
839.261	141.94913
839.445	127.18734
839.63	122.96987
839.815	87.12496
839.999	156.71198
840.184	103.99236
840.368	112.42659
840.553	23.88513
840.737	182.02209
840.922	160.93012
841.106	146.16698
841.291	49.17857
841.475	110.318
841.66	190.45945
841.844	152.49392
842.029	103.99236
842.213	122.96987
842.397	127.18734
842.582	87.12496
842.766	169.36666
842.951	127.18734
843.135	194.67826
843.319	101.88386
843.504	179.9128
843.688	82.90833
843.872	114.5352
844.056	53.39447
844.241	177.80353
844.425	74.47535
844.609	154.60294
844.793	139.84024
844.977	72.36716
845.161	120.86117
845.346	89.23331
845.53	156.71198
845.714	160.93012
845.898	61.82655
846.082	42.8549
846.266	118.75249
846.45	72.36716
846.634	97.66692
846.818	42.8549
847.002	177.80353
847.186	63.93463
847.37	127.18734
847.554	87.12496
847.738	137.73137
847.922	150.38492
848.106	72.36716
848.29	72.36716
848.473	122.96987
848.657	169.36666
848.841	148.27594
849.025	156.71198
849.209	59.7185
849.392	141.94913
849.576	110.318
849.76	135.62252
849.944	85.01664
850.127	201.00661
850.311	120.86117
850.495	106.10089
850.678	177.80353
850.862	156.71198
851.046	87.12496
851.229	99.77538
851.413	156.71198
851.596	110.318
851.78	70.25899
851.964	93.45007
852.147	112.42659
852.331	85.01664
852.514	148.27594
852.698	118.75249
852.881	32.3159
853.065	95.55848
853.248	129.2961
853.431	194.67826
853.615	93.45007
853.798	78.6918
853.982	112.42659
854.165	68.15085
854.348	110.318
854.532	101.88386
854.715	93.45007
854.898	137.73137
855.081	93.45007
855.265	59.7185
855.448	101.88386
855.631	118.75249
855.814	118.75249
855.997	95.55848
856.181	154.60294
856.364	99.77538
856.547	112.42659
856.73	148.27594
856.913	122.96987
857.096	40.74705
857.279	89.23331
857.462	61.82655
857.645	127.18734
857.828	106.10089
858.011	148.27594
858.194	103.99236
858.377	112.42659
858.56	101.88386
858.743	114.5352
858.926	101.88386
859.109	114.5352
859.292	91.34168
859.475	53.39447
859.658	87.12496
859.841	70.25899
860.023	131.40488
860.206	72.36716
860.389	135.62252
860.572	93.45007
860.755	139.84024
860.937	78.6918
861.12	61.82655
861.303	97.66692
861.486	118.75249
861.668	137.73137
861.851	97.66692
862.034	68.15085
862.216	89.23331
862.399	85.01664
862.581	152.49392
862.764	68.15085
862.947	106.10089
863.129	122.96987
863.312	106.10089
863.494	89.23331
863.677	0.70246
863.859	89.23331
864.042	25.99279
864.224	179.9128
864.406	114.5352
864.589	127.18734
864.771	47.07066
864.954	112.42659
865.136	175.69428
865.318	78.6918
865.501	127.18734
865.683	68.15085
865.865	63.93463
866.048	114.5352
866.23	68.15085
866.412	120.86117
866.594	135.62252
866.777	76.58356
866.959	91.34168
867.141	32.3159
867.323	55.50246
867.505	34.42366
867.687	110.318
867.869	49.17857
868.052	173.58505
868.234	21.7775
868.416	101.88386
868.598	17.5623
868.78	59.7185
868.962	152.49392
869.144	133.51369
869.326	42.8549
869.508	66.04272
869.69	114.5352
869.872	-1.40491
870.054	131.40488
870.236	78.6918
870.417	85.01664
870.599	55.50246
870.781	57.61047
870.963	80.80005
871.145	36.53143
871.327	93.45007
871.508	129.2961
871.69	17.5623
871.872	99.77538
872.054	68.15085
872.235	61.82655
872.417	95.55848
872.599	135.62252
872.78	125.07859
872.962	61.82655
873.144	47.07066
873.325	125.07859
873.507	127.18734
873.689	68.15085
873.87	85.01664
874.052	63.93463
874.233	55.50246
874.415	63.93463
874.596	23.88513
874.778	19.66988
874.959	11.23968
875.141	38.63923
875.322	76.58356
875.503	36.53143
875.685	-5.61958
875.866	156.71198
876.048	68.15085
876.229	61.82655
876.41	99.77538
876.592	137.73137
876.773	68.15085
876.954	154.60294
877.136	89.23331
877.317	34.42366
877.498	91.34168
877.679	53.39447
877.86	59.7185
878.042	110.318
878.223	66.04272
878.404	55.50246
878.585	59.7185
878.766	110.318
878.947	89.23331
879.128	118.75249
879.309	120.86117
879.49	118.75249
879.672	106.10089
879.853	28.10047
880.034	116.64384
880.215	135.62252
880.396	68.15085
880.576	74.47535
880.757	146.16698
880.938	80.80005
881.119	95.55848
881.3	68.15085
881.481	101.88386
881.662	11.23968
881.843	61.82655
882.023	101.88386
882.204	135.62252
882.385	141.94913
882.566	85.01664
882.747	76.58356
882.927	156.71198
883.108	68.15085
883.289	120.86117
883.469	95.55848
883.65	76.58356
883.831	51.28651
884.011	53.39447
884.192	154.60294
884.373	177.80353
884.553	59.7185
884.734	106.10089
884.914	70.25899
885.095	21.7775
885.275	141.94913
885.456	112.42659
885.636	93.45007
885.817	76.58356
885.997	70.25899
886.178	38.63923
886.358	137.73137
886.538	42.8549
886.719	30.20817
886.899	89.23331
887.08	179.9128
887.26	120.86117
887.44	61.82655
887.621	85.01664
887.801	118.75249
887.981	108.20943
888.161	97.66692
888.342	80.80005
888.522	76.58356
888.702	7.02472
888.882	114.5352
889.062	57.61047
889.242	63.93463
889.423	59.7185
889.603	99.77538
889.783	118.75249
889.963	93.45007
890.143	118.75249
890.323	63.93463
890.503	70.25899
890.683	42.8549
890.863	95.55848
891.043	114.5352
891.223	74.47535
891.403	51.28651
891.583	72.36716
891.763	28.10047
891.943	148.27594
892.122	78.6918
892.302	137.73137
892.482	63.93463
892.662	53.39447
892.842	196.78769
893.022	148.27594
893.201	47.07066
893.381	85.01664
893.561	85.01664
893.741	118.75249
893.92	101.88386
894.1	137.73137
894.28	30.20817
894.459	76.58356
894.639	118.75249
894.819	21.7775
894.998	152.49392
895.178	91.34168
895.357	36.53143
895.537	127.18734
895.716	72.36716
895.896	93.45007
896.075	44.96277
896.255	87.12496
896.434	74.47535
896.614	57.61047
896.793	68.15085
896.973	4.91728
897.152	72.36716
897.331	70.25899
897.511	34.42366
897.69	-16.15583
897.87	110.318
898.049	91.34168
898.228	110.318
898.407	68.15085
898.587	101.88386
898.766	131.40488
898.945	158.82104
899.124	93.45007
899.304	55.50246
899.483	66.04272
899.662	72.36716
899.841	133.51369
900.02	44.96277
900.199	76.58356
900.378	89.23331
900.557	17.5623
900.737	49.17857
900.916	72.36716
901.095	106.10089
901.274	51.28651
901.453	61.82655
901.632	78.6918
901.811	42.8549
901.989	30.20817
902.168	76.58356
902.347	42.8549
902.526	89.23331
902.705	42.8549
902.884	80.80005
903.063	80.80005
903.242	25.99279
903.42	72.36716
903.599	59.7185
903.778	78.6918
903.957	91.34168
904.135	9.13219
904.314	93.45007
904.493	85.01664
904.672	19.66988
904.85	25.99279
905.029	53.39447
905.207	116.64384
905.386	101.88386
905.565	-35.11954
905.743	9.13219
905.922	42.8549
906.1	93.45007
906.279	4.91728
906.457	13.34719
906.636	91.34168
906.814	15.45473
906.993	53.39447
907.171	127.18734
907.35	49.17857
907.528	36.53143
907.707	76.58356
907.885	137.73137
908.063	25.99279
908.242	38.63923
908.42	66.04272
908.598	72.36716
908.777	70.25899
908.955	51.28651
909.133	28.10047
909.311	87.12496
909.49	68.15085
909.668	49.17857
909.846	0.70246
910.024	59.7185
910.202	49.17857
910.38	103.99236
910.559	68.15085
910.737	40.74705
910.915	59.7185
911.093	125.07859
911.271	28.10047
911.449	85.01664
911.627	-11.94141
911.805	51.28651
911.983	59.7185
912.161	59.7185
912.339	44.96277
912.517	44.96277
912.695	55.50246
912.872	63.93463
913.05	85.01664
913.228	82.90833
913.406	51.28651
913.584	38.63923
913.762	51.28651
913.939	2.80986
914.117	63.93463
914.295	30.20817
914.473	0.70246
914.65	101.88386
914.828	32.3159
915.006	59.7185
915.184	17.5623
915.361	76.58356
915.539	169.36666
915.716	59.7185
915.894	87.12496
916.072	89.23331
916.249	110.318
916.427	82.90833
916.604	40.74705
916.782	38.63923
916.959	85.01664
917.137	19.66988
917.314	80.80005
917.492	95.55848
917.669	72.36716
917.847	-16.15583
918.024	93.45007
918.201	118.75249
918.379	91.34168
918.556	106.10089
918.733	82.90833
918.911	93.45007
919.088	59.7185
919.265	89.23331
919.442	47.07066
919.62	55.50246
919.797	17.5623
919.974	47.07066
920.151	19.66988
920.328	34.42366
920.506	112.42659
920.683	51.28651
920.86	78.6918
921.037	89.23331
921.214	120.86117
921.391	78.6918
921.568	85.01664
921.745	57.61047
921.922	40.74705
922.099	122.96987
922.276	2.80986
922.453	42.8549
922.63	93.45007
922.807	78.6918
922.984	61.82655
923.161	120.86117
923.338	-22.47729
923.514	101.88386
923.691	122.96987
923.868	25.99279
924.045	78.6918
924.222	25.99279
924.399	55.50246
924.575	51.28651
924.752	112.42659
924.929	9.13219
925.105	70.25899
925.282	13.34719
925.459	51.28651
925.635	68.15085
925.812	42.8549
925.989	17.5623
926.165	87.12496
926.342	120.86117
926.518	55.50246
926.695	0.70246
926.871	25.99279
927.048	85.01664
927.224	47.07066
927.401	34.42366
927.577	15.45473
927.754	131.40488
927.93	68.15085
928.107	44.96277
928.283	-14.04863
928.459	169.36666
928.636	34.42366
928.812	42.8549
928.988	85.01664
929.165	74.47535
929.341	66.04272
929.517	91.34168
929.693	2.80986
929.87	68.15085
930.046	47.07066
930.222	74.47535
930.398	89.23331
930.574	78.6918
930.751	25.99279
930.927	25.99279
931.103	78.6918
931.279	-11.94141
931.455	63.93463
931.631	-16.15583
931.807	49.17857
931.983	53.39447
932.159	61.82655
932.335	87.12496
932.511	-41.44034
932.687	55.50246
932.863	4.91728
933.039	70.25899
933.215	30.20817
933.391	61.82655
933.566	0.70246
933.742	23.88513
933.918	72.36716
934.094	93.45007
934.27	7.02472
934.445	63.93463
934.621	36.53143
934.797	42.8549
934.973	-1.40491
935.148	7.02472
935.324	55.50246
935.5	34.42366
935.675	66.04272
935.851	-1.40491
936.027	7.02472
936.202	2.80986
936.378	11.23968
936.553	23.88513
936.729	25.99279
936.904	23.88513
937.08	47.07066
937.255	72.36716
937.431	68.15085
937.606	9.13219
937.782	0.70246
937.957	61.82655
938.133	9.13219
938.308	9.13219
938.483	2.80986
938.659	78.6918
938.834	-14.04863
939.009	55.50246
939.185	-3.51226
939.36	118.75249
939.535	42.8549
939.71	-5.61958
939.886	51.28651
940.061	-1.40491
940.236	32.3159
940.411	-20.37016
940.586	53.39447
940.761	-33.01256
940.937	32.3159
941.112	61.82655
941.287	-26.69148
941.462	17.5623
941.637	34.42366
941.812	34.42366
941.987	-70.93437
942.162	-7.72688
942.337	-7.72688
942.512	59.7185
942.687	21.7775
942.862	17.5623
943.037	9.13219
943.212	4.91728
943.386	78.6918
943.561	13.34719
943.736	25.99279
943.911	61.82655
944.086	-45.65407
944.26	-7.72688
944.435	19.66988
944.61	9.13219
944.785	42.8549
944.959	-24.5844
945.134	80.80005
945.309	4.91728
945.483	127.18734
945.658	53.39447
945.833	38.63923
946.007	-22.47729
946.182	80.80005
946.357	-41.44034
946.531	59.7185
946.706	-14.04863
946.88	32.3159
947.055	91.34168
947.229	9.13219
947.404	-7.72688
947.578	4.91728
947.752	55.50246
947.927	34.42366
948.101	44.96277
948.276	34.42366
948.45	42.8549
948.624	44.96277
948.799	42.8549
948.973	38.63923
949.147	4.91728
949.321	34.42366
949.496	55.50246
949.67	17.5623
949.844	36.53143
950.018	72.36716
950.193	36.53143
950.367	-73.04089
950.541	87.12496
950.715	85.01664
950.889	0.70246
951.063	0.70246
951.237	97.66692
951.411	9.13219
951.585	-7.72688
951.759	70.25899
951.933	51.28651
952.107	4.91728
952.281	44.96277
952.455	-3.51226
952.629	85.01664
952.803	-28.79853
952.977	17.5623
953.151	78.6918
953.325	38.63923
953.499	-22.47729
953.672	97.66692
953.846	-73.04089
954.02	68.15085
954.194	-60.40135
954.368	9.13219
954.541	66.04272
954.715	-7.72688
954.889	23.88513
955.062	101.88386
955.236	61.82655
955.41	74.47535
955.583	0.70246
955.757	13.34719
955.93	25.99279
956.104	4.91728
956.278	49.17857
956.451	-100.42339
956.625	-7.72688
956.798	-7.72688
956.972	21.7775
957.145	59.7185
957.319	72.36716
957.492	135.62252
957.665	-33.01256
957.839	40.74705
958.012	13.34719
958.185	51.28651
958.359	21.7775
958.532	40.74705
958.705	66.04272
958.879	42.8549
959.052	-70.93437
959.225	17.5623
959.398	17.5623
959.572	70.25899
959.745	11.23968
959.918	61.82655
960.091	42.8549
960.264	36.53143
960.438	163.03922
960.611	36.53143
960.784	21.7775
960.957	19.66988
961.13	78.6918
961.303	-11.94141
961.476	44.96277
961.649	-41.44034
961.822	93.45007
961.995	87.12496
962.168	-3.51226
962.341	11.23968
962.514	34.42366
962.686	19.66988
962.859	15.45473
963.032	-7.72688
963.205	2.80986
963.378	47.07066
963.551	51.28651
963.723	-11.94141
963.896	19.66988
964.069	103.99236
964.242	-11.94141
964.414	114.5352
964.587	61.82655
964.76	4.91728
964.932	13.34719
965.105	13.34719
965.278	85.01664
965.45	55.50246
965.623	59.7185
965.795	36.53143
965.968	38.63923
966.14	11.23968
966.313	9.13219
966.485	13.34719
966.658	106.10089
966.83	17.5623
967.003	-24.5844
967.175	40.74705
967.348	93.45007
967.52	72.36716
967.692	21.7775
967.865	-7.72688
968.037	-5.61958
968.209	17.5623
968.382	-3.51226
968.554	-16.15583
968.726	85.01664
968.898	97.66692
969.071	101.88386
969.243	-16.15583
969.415	82.90833
969.587	40.74705
969.759	13.34719
969.932	40.74705
970.104	59.7185
970.276	47.07066
970.448	59.7185
970.62	82.90833
970.792	80.80005
970.964	59.7185
971.136	-11.94141
971.308	47.07066
971.48	76.58356
971.652	-30.90556
971.824	11.23968
971.996	0.70246
972.168	17.5623
972.339	89.23331
972.511	53.39447
972.683	-16.15583
972.855	-16.15583
973.027	112.42659
973.199	-14.04863
973.37	51.28651
973.542	59.7185
973.714	61.82655
973.886	-9.83416
974.057	59.7185
974.229	25.99279
974.401	25.99279
974.572	-14.04863
974.744	44.96277
974.915	0.70246
975.087	78.6918
975.259	11.23968
975.43	34.42366
975.602	59.7185
975.773	-1.40491
975.945	17.5623
976.116	34.42366
976.288	135.62252
976.459	-30.90556
976.63	9.13219
976.802	101.88386
976.973	-1.40491
977.145	34.42366
977.316	13.34719
977.487	19.66988
977.659	2.80986
977.83	0.70246
978.001	38.63923
978.172	57.61047
978.344	59.7185
978.515	23.88513
978.686	59.7185
978.857	17.5623
979.028	-11.94141
979.2	21.7775
979.371	49.17857
979.542	-39.33343
979.713	40.74705
979.884	-18.26301
980.055	59.7185
980.226	53.39447
980.397	2.80986
980.568	9.13219
980.739	59.7185
980.91	42.8549
981.081	42.8549
981.252	11.23968
981.423	-5.61958
981.594	17.5623
981.765	11.23968
981.936	47.07066
982.106	0.70246
982.277	61.82655
982.448	-16.15583
982.619	118.75249
982.79	72.36716
982.96	-35.11954
983.131	44.96277
983.302	68.15085
983.472	51.28651
983.643	42.8549
983.814	68.15085
983.984	28.10047
984.155	21.7775
984.326	-7.72688
984.496	11.23968
984.667	34.42366
984.837	59.7185
985.008	59.7185
985.178	47.07066
985.349	66.04272
985.519	-16.15583
985.69	2.80986
985.86	32.3159
986.031	42.8549
986.201	34.42366
986.371	36.53143
986.542	51.28651
986.712	108.20943
986.882	42.8549
987.053	53.39447
987.223	-37.2265
987.393	78.6918
987.563	-30.90556
987.734	89.23331
987.904	120.86117
988.074	9.13219
988.244	-66.72124
988.414	-62.50801
988.585	19.66988
988.755	-9.83416
988.925	61.82655
989.095	42.8549
989.265	40.74705
989.435	68.15085
989.605	-7.72688
989.775	-28.79853
989.945	-39.33343
990.115	34.42366
990.285	-11.94141
990.455	-16.15583
990.625	-45.65407
990.795	-7.72688
990.965	40.74705
991.134	25.99279
991.304	0.70246
991.474	57.61047
991.644	44.96277
991.814	51.28651
991.984	55.50246
992.153	32.3159
992.323	9.13219
992.493	21.7775
992.662	9.13219
992.832	23.88513
993.002	-7.72688
993.171	61.82655
993.341	40.74705
993.511	61.82655
993.68	-11.94141
993.85	106.10089
994.019	47.07066
994.189	0.70246
994.358	36.53143
994.528	28.10047
994.697	19.66988
994.867	40.74705
995.036	-16.15583
995.206	7.02472
995.375	-30.90556
995.544	55.50246
995.714	-20.37016
995.883	51.28651
996.052	-7.72688
996.222	-16.15583
996.391	36.53143
996.56	21.7775
996.73	87.12496
996.899	25.99279
997.068	13.34719
997.237	70.25899
997.406	47.07066
997.576	19.66988
997.745	36.53143
997.914	-11.94141
998.083	7.02472
998.252	-81.46674
998.421	7.02472
998.59	9.13219
998.759	-24.5844
998.928	25.99279
999.097	42.8549
999.266	38.63923
999.435	-28.79853
999.604	40.74705
999.773	19.66988
999.942	44.96277
1000.111	68.15085
1000.28	-11.94141
1000.448	-45.65407
1000.617	57.61047
1000.786	9.13219
1000.955	9.13219
1001.124	-70.93437
1001.292	-30.90556
1001.461	9.13219
1001.63	13.34719
1001.798	17.5623
1001.967	-58.29468
1002.136	25.99279
1002.304	110.318
1002.473	93.45007
1002.642	42.8549
1002.81	17.5623
1002.979	101.88386
1003.147	53.39447
1003.316	95.55848
1003.484	53.39447
1003.653	72.36716
1003.821	-9.83416
1003.99	34.42366
1004.158	59.7185
1004.327	68.15085
1004.495	-3.51226
1004.663	-33.01256
1004.832	11.23968
1005	25.99279
1005.168	78.6918
1005.337	66.04272
1005.505	42.8549
1005.673	-11.94141
1005.842	-7.72688
1006.01	101.88386
1006.178	68.15085
1006.346	53.39447
1006.514	59.7185
1006.683	11.23968
1006.851	-11.94141
1007.019	70.25899
1007.187	49.17857
1007.355	36.53143
1007.523	25.99279
1007.691	13.34719
1007.859	11.23968
1008.027	-1.40491
1008.195	40.74705
1008.363	-33.01256
1008.531	21.7775
1008.699	23.88513
1008.867	9.13219
1009.035	63.93463
1009.203	9.13219
1009.37	-45.65407
1009.538	95.55848
1009.706	59.7185
1009.874	55.50246
1010.042	72.36716
1010.209	-24.5844
1010.377	44.96277
1010.545	-5.61958
1010.713	9.13219
1010.88	55.50246
1011.048	11.23968
1011.216	-11.94141
1011.383	9.13219
1011.551	30.20817
1011.718	44.96277
1011.886	-28.79853
1012.054	38.63923
1012.221	-9.83416
1012.389	28.10047
1012.556	25.99279
1012.724	51.28651
1012.891	68.15085
1013.058	68.15085
1013.226	23.88513
1013.393	82.90833
1013.561	-28.79853
1013.728	17.5623
1013.895	72.36716
1014.063	-24.5844
1014.23	23.88513
1014.397	-22.47729
1014.565	76.58356
1014.732	38.63923
1014.899	25.99279
1015.066	51.28651
1015.233	9.13219
1015.401	19.66988
1015.568	91.34168
1015.735	-83.57314
1015.902	38.63923
1016.069	36.53143
1016.236	11.23968
1016.403	-11.94141
1016.57	-41.44034
1016.737	76.58356
1016.904	34.42366
1017.071	13.34719
1017.238	70.25899
1017.405	25.99279
1017.572	57.61047
1017.739	-18.26301
1017.906	-11.94141
1018.073	-54.08124
1018.24	42.8549
1018.407	51.28651
1018.573	51.28651
1018.74	-51.97449
1018.907	34.42366
1019.074	9.13219
1019.241	49.17857
1019.407	30.20817
1019.574	55.50246
1019.741	23.88513
1019.907	-11.94141
1020.074	21.7775
1020.241	-9.83416
1020.407	21.7775
1020.574	47.07066
1020.74	17.5623
1020.907	-1.40491
1021.073	-39.33343
1021.24	32.3159
1021.406	-54.08124
1021.573	-18.26301
1021.739	70.25899
1021.906	38.63923
1022.072	44.96277
1022.239	-5.61958
1022.405	34.42366
1022.571	-26.69148
1022.738	-22.47729
1022.904	61.82655
1023.07	76.58356
1023.237	68.15085
1023.403	-26.69148
1023.569	4.91728
1023.735	9.13219
1023.902	28.10047
1024.068	97.66692
1024.234	17.5623
1024.4	47.07066
1024.566	13.34719
1024.732	-41.44034
1024.898	25.99279
1025.065	-24.5844
1025.231	59.7185
1025.397	4.91728
1025.563	0.70246
1025.729	25.99279
1025.895	76.58356
1026.061	47.07066
1026.227	19.66988
1026.392	-58.29468
1026.558	51.28651
1026.724	23.88513
1026.89	49.17857
1027.056	17.5623
1027.222	30.20817
1027.388	70.25899
1027.553	9.13219
1027.719	-33.01256
1027.885	21.7775
1028.051	25.99279
1028.216	9.13219
1028.382	61.82655
1028.548	-5.61958
1028.713	38.63923
1028.879	21.7775
1029.045	17.5623
1029.21	59.7185
1029.376	0.70246
1029.541	38.63923
1029.707	51.28651
1029.873	11.23968
1030.038	17.5623
1030.204	15.45473
1030.369	55.50246
1030.534	4.91728
1030.7	0.70246
1030.865	-41.44034
1031.031	30.20817
1031.196	-9.83416
1031.361	63.93463
1031.527	82.90833
1031.692	4.91728
1031.857	17.5623
1032.023	72.36716
1032.188	-5.61958
1032.353	-39.33343
1032.518	51.28651
1032.684	38.63923
1032.849	42.8549
1033.014	78.6918
1033.179	61.82655
1033.344	44.96277
1033.509	-9.83416
1033.674	55.50246
1033.839	30.20817
1034.004	61.82655
1034.17	51.28651
1034.335	-20.37016
1034.5	34.42366
1034.664	-11.94141
1034.829	-43.54722
1034.994	118.75249
1035.159	-7.72688
1035.324	-16.15583
1035.489	53.39447
1035.654	-18.26301
1035.819	-16.15583
1035.984	-7.72688
1036.148	9.13219
1036.313	57.61047
1036.478	-5.61958
1036.643	19.66988
1036.807	61.82655
1036.972	38.63923
1037.137	-16.15583
1037.301	68.15085
1037.466	11.23968
1037.631	63.93463
1037.795	-33.01256
1037.96	70.25899
1038.124	36.53143
1038.289	17.5623
1038.454	42.8549
1038.618	68.15085
1038.783	89.23331
1038.947	-47.7609
1039.111	13.34719
1039.276	72.36716
1039.44	30.20817
1039.605	9.13219
1039.769	59.7185
1039.933	17.5623
1040.098	21.7775
1040.262	-47.7609
1040.426	76.58356
1040.591	68.15085
1040.755	51.28651
1040.919	44.96277
1041.083	76.58356
1041.248	44.96277
1041.412	49.17857
1041.576	106.10089
1041.74	21.7775
1041.904	-5.61958
1042.068	15.45473
1042.232	68.15085
1042.397	-20.37016
1042.561	9.13219
1042.725	-16.15583
1042.889	59.7185
1043.053	-89.89218
1043.217	44.96277
1043.381	40.74705
1043.544	-64.61464
1043.708	-11.94141
1043.872	55.50246
1044.036	-9.83416
1044.2	28.10047
1044.364	95.55848
1044.528	-30.90556
1044.691	38.63923
1044.855	0.70246
1045.019	13.34719
1045.183	-41.44034
1045.346	44.96277
1045.51	76.58356
1045.674	-5.61958
1045.837	34.42366
1046.001	42.8549
1046.165	-9.83416
1046.328	4.91728
1046.492	19.66988
1046.655	-28.79853
1046.819	42.8549
1046.983	38.63923
1047.146	42.8549
1047.31	11.23968
1047.473	30.20817
1047.636	89.23331
1047.8	76.58356
1047.963	21.7775
1048.127	66.04272
1048.29	7.02472
