Data from Scatter_Coeff_Baseline_USB4F045381__6__0006.txt Node

Date: Thu Feb 13 19:16:20 EST 2025
User: mmckonesweet
Spectrometer: USB4F04538
Trigger mode: 4
Integration Time (sec): 2.400000E-3
Scans to average: 1
Electric dark correction enabled: true
Nonlinearity correction enabled: true
Boxcar width: 0
XAxis mode: Wavelengths
Number of Pixels in Spectrum: 3648
>>>>>Begin Spectral Data<<<<<
345.52	-14.57544
345.736	-14.57544
345.952	-14.57544
346.168	29.68125
346.384	59.19149
346.6	-6.14641
346.816	-29.32529
347.032	-10.36097
347.248	31.78897
347.464	4.39042
347.68	-41.96706
347.896	-20.89695
348.112	40.22009
348.328	54.97546
348.544	-6.14641
348.76	21.25059
348.975	-37.75323
349.191	12.82031
349.407	42.32793
349.623	52.86748
349.839	-92.52504
350.055	101.35674
350.27	38.11228
350.486	0.17561
350.702	50.75953
350.918	25.46587
351.133	-16.68263
351.349	25.46587
351.565	-12.46822
351.781	52.86748
351.996	0.17561
352.212	0.17561
352.428	38.11228
352.644	40.22009
352.859	25.46587
353.075	17.0354
353.291	-65.14129
353.506	8.60532
353.722	-6.14641
353.938	14.92785
354.153	-41.96706
354.369	2.283
354.584	-29.32529
354.8	-16.68263
355.016	63.4076
355.231	54.97546
355.447	-31.43231
355.662	88.70622
355.878	38.11228
356.093	-27.21824
356.309	69.73195
356.524	-27.21824
356.74	17.0354
356.955	36.00449
357.171	-50.3944
357.386	-27.21824
357.602	48.65159
357.817	21.25059
358.033	-23.00407
358.248	88.70622
358.464	42.32793
358.679	65.5157
358.895	42.32793
359.11	-8.2537
359.325	-50.3944
359.541	23.35822
359.756	10.7128
359.972	-14.57544
360.187	21.25059
360.402	31.78897
360.618	-90.41875
360.833	-81.99334
361.048	8.60532
361.264	8.60532
361.479	-29.32529
361.694	107.68229
361.909	0.17561
362.125	14.92785
362.34	-31.43231
362.555	21.25059
362.77	0.17561
362.986	46.54368
363.201	46.54368
363.416	143.53082
363.631	80.27299
363.847	-23.00407
364.062	46.54368
364.277	118.22533
364.492	57.08346
364.707	67.62381
364.922	-65.14129
365.138	10.7128
365.353	-27.21824
365.568	4.39042
365.783	36.00449
365.998	-8.2537
366.213	2.283
366.428	-29.32529
366.643	105.57375
366.858	54.97546
367.073	-8.2537
367.288	-18.7898
367.503	17.0354
367.718	-90.41875
367.933	76.05651
368.148	-4.03909
368.363	12.82031
368.578	-33.53931
368.793	-8.2537
369.008	-14.57544
369.223	-20.89695
369.438	67.62381
369.653	-60.92802
369.868	12.82031
370.083	-12.46822
370.298	29.68125
370.513	-63.03467
370.728	-56.71465
370.943	101.35674
371.157	25.46587
371.372	80.27299
371.587	-31.43231
371.802	-8.2537
372.017	80.27299
372.232	76.05651
372.446	46.54368
372.661	-27.21824
372.876	14.92785
373.091	27.57355
373.306	33.89672
373.52	4.39042
373.735	27.57355
373.95	4.39042
374.165	-8.2537
374.379	-16.68263
374.594	48.65159
374.809	-29.32529
375.023	-54.60793
375.238	-6.14641
375.453	8.60532
375.667	-6.14641
375.882	31.78897
376.097	31.78897
376.311	27.57355
376.526	8.60532
376.741	4.39042
376.955	8.60532
377.17	-10.36097
377.384	4.39042
377.599	-58.82135
377.813	44.4358
378.028	38.11228
378.242	10.7128
378.457	19.14299
378.672	25.46587
378.886	-25.11117
379.101	8.60532
379.315	-25.11117
379.53	-29.32529
379.744	-12.46822
379.958	25.46587
380.173	-29.32529
380.387	21.25059
380.602	12.82031
380.816	-33.53931
381.031	63.4076
381.245	38.11228
381.459	61.29953
381.674	-12.46822
381.888	12.82031
382.103	63.4076
382.317	6.49786
382.531	80.27299
382.746	-41.96706
382.96	21.25059
383.174	38.11228
383.388	10.7128
383.603	29.68125
383.817	4.39042
384.031	57.08346
384.246	25.46587
384.46	19.14299
384.674	-14.57544
384.888	25.46587
385.103	8.60532
385.317	44.4358
385.531	0.17561
385.745	-37.75323
385.959	2.283
386.174	-20.89695
386.388	33.89672
386.602	67.62381
386.816	-23.00407
387.03	59.19149
387.244	-29.32529
387.458	-6.14641
387.672	29.68125
387.887	25.46587
388.101	-6.14641
388.315	23.35822
388.529	73.9483
388.743	-27.21824
388.957	0.17561
389.171	44.4358
389.385	10.7128
389.599	82.38126
389.813	90.81458
390.027	63.4076
390.241	-12.46822
390.455	-8.2537
390.669	46.54368
390.883	-29.32529
391.097	17.0354
391.311	88.70622
391.525	42.32793
391.738	-8.2537
391.952	54.97546
392.166	17.0354
392.38	59.19149
392.594	59.19149
392.808	31.78897
393.022	25.46587
393.236	8.60532
393.449	-12.46822
393.663	90.81458
393.877	82.38126
394.091	78.16474
394.305	2.283
394.518	69.73195
394.732	4.39042
394.946	17.0354
395.16	42.32793
395.373	-54.60793
395.587	-6.14641
395.801	0.17561
396.015	50.75953
396.228	12.82031
396.442	17.0354
396.656	19.14299
396.869	21.25059
397.083	17.0354
397.297	0.17561
397.51	12.82031
397.724	31.78897
397.938	-56.71465
398.151	0.17561
398.365	67.62381
398.578	33.89672
398.792	-6.14641
399.005	29.68125
399.219	52.86748
399.433	-8.2537
399.646	29.68125
399.86	103.46523
400.073	-4.03909
400.287	8.60532
400.5	-1.93175
400.714	31.78897
400.927	2.283
401.141	-4.03909
401.354	38.11228
401.567	17.0354
401.781	52.86748
401.994	84.48956
402.208	33.89672
402.421	50.75953
402.635	52.86748
402.848	29.68125
403.061	0.17561
403.275	8.60532
403.488	-50.3944
403.701	17.0354
403.915	111.89944
404.128	42.32793
404.341	-16.68263
404.555	29.68125
404.768	-4.03909
404.981	-39.86016
405.195	14.92785
405.408	12.82031
405.621	17.0354
405.834	-8.2537
406.048	27.57355
406.261	-16.68263
406.474	52.86748
406.687	42.32793
406.9	6.49786
407.114	-41.96706
407.327	-1.93175
407.54	-6.14641
407.753	92.92297
407.966	4.39042
408.179	76.05651
408.392	0.17561
408.605	-39.86016
408.819	-6.14641
409.032	29.68125
409.245	8.60532
409.458	40.22009
409.671	-16.68263
409.884	10.7128
410.097	0.17561
410.31	-16.68263
410.523	21.25059
410.736	12.82031
410.949	61.29953
411.162	19.14299
411.375	-20.89695
411.588	17.0354
411.801	17.0354
412.014	33.89672
412.227	38.11228
412.44	23.35822
412.653	14.92785
412.865	52.86748
413.078	61.29953
413.291	-8.2537
413.504	31.78897
413.717	86.59788
413.93	-29.32529
414.143	38.11228
414.356	-12.46822
414.568	4.39042
414.781	33.89672
414.994	0.17561
415.207	-23.00407
415.42	-25.11117
415.632	-12.46822
415.845	27.57355
416.058	-16.68263
416.271	8.60532
416.483	36.00449
416.696	63.4076
416.909	21.25059
417.121	78.16474
417.334	-23.00407
417.547	33.89672
417.759	59.19149
417.972	27.57355
418.185	19.14299
418.397	-23.00407
418.61	63.4076
418.823	78.16474
419.035	50.75953
419.248	19.14299
419.46	-33.53931
419.673	-16.68263
419.885	38.11228
420.098	19.14299
420.311	0.17561
420.523	44.4358
420.736	59.19149
420.948	67.62381
421.161	63.4076
421.373	-8.2537
421.586	-29.32529
421.798	33.89672
422.01	0.17561
422.223	95.03138
422.435	-77.78048
422.648	-46.18078
422.86	0.17561
423.073	61.29953
423.285	27.57355
423.497	0.17561
423.71	-27.21824
423.922	-4.03909
424.134	21.25059
424.347	25.46587
424.559	0.17561
424.771	67.62381
424.984	42.32793
425.196	59.19149
425.408	-41.96706
425.621	10.7128
425.833	67.62381
426.045	-50.3944
426.257	-63.03467
426.47	-33.53931
426.682	14.92785
426.894	19.14299
427.106	12.82031
427.318	50.75953
427.531	21.25059
427.743	76.05651
427.955	33.89672
428.167	48.65159
428.379	17.0354
428.591	54.97546
428.804	17.0354
429.016	27.57355
429.228	8.60532
429.44	-12.46822
429.652	-52.50118
429.864	-50.3944
430.076	-50.3944
430.288	76.05651
430.5	21.25059
430.712	25.46587
430.924	-37.75323
431.136	25.46587
431.348	50.75953
431.56	40.22009
431.772	27.57355
431.984	-67.24789
432.196	97.13981
432.408	10.7128
432.62	2.283
432.832	-4.03909
433.044	42.32793
433.256	-23.00407
433.468	-50.3944
433.679	4.39042
433.891	-20.89695
434.103	-8.2537
434.315	-6.14641
434.527	46.54368
434.739	42.32793
434.95	0.17561
435.162	-31.43231
435.374	27.57355
435.586	44.4358
435.798	63.4076
436.009	-65.14129
436.221	-18.7898
436.433	8.60532
436.645	-41.96706
436.856	61.29953
437.068	0.17561
437.28	44.4358
437.491	48.65159
437.703	4.39042
437.915	-8.2537
438.126	10.7128
438.338	21.25059
438.55	6.49786
438.761	0.17561
438.973	0.17561
439.184	65.5157
439.396	-88.31244
439.608	2.283
439.819	38.11228
440.031	19.14299
440.242	42.32793
440.454	101.35674
440.665	-31.43231
440.877	63.4076
441.088	46.54368
441.3	4.39042
441.511	17.0354
441.723	38.11228
441.934	-39.86016
442.146	33.89672
442.357	6.49786
442.569	50.75953
442.78	-25.11117
442.991	8.60532
443.203	25.46587
443.414	42.32793
443.626	33.89672
443.837	-4.03909
444.048	-6.14641
444.26	-35.64629
444.471	-27.21824
444.682	0.17561
444.894	33.89672
445.105	25.46587
445.316	-4.03909
445.528	-48.28761
445.739	-39.86016
445.95	17.0354
446.161	-23.00407
446.373	25.46587
446.584	-16.68263
446.795	44.4358
447.006	-56.71465
447.217	33.89672
447.429	-27.21824
447.64	67.62381
447.851	88.70622
448.062	33.89672
448.273	31.78897
448.484	33.89672
448.695	50.75953
448.907	0.17561
449.118	-56.71465
449.329	-39.86016
449.54	-84.09974
449.751	27.57355
449.962	27.57355
450.173	46.54368
450.384	-1.93175
450.595	27.57355
450.806	36.00449
451.017	-31.43231
451.228	61.29953
451.439	6.49786
451.65	-23.00407
451.861	17.0354
452.072	42.32793
452.283	33.89672
452.494	19.14299
452.705	31.78897
452.915	-8.2537
453.126	-8.2537
453.337	-14.57544
453.548	10.7128
453.759	25.46587
453.97	8.60532
454.181	31.78897
454.391	-12.46822
454.602	-8.2537
454.813	33.89672
455.024	36.00449
455.235	31.78897
455.445	-8.2537
455.656	12.82031
455.867	17.0354
456.078	0.17561
456.288	17.0354
456.499	78.16474
456.71	80.27299
456.921	0.17561
457.131	0.17561
457.342	63.4076
457.553	0.17561
457.763	14.92785
457.974	65.5157
458.184	8.60532
458.395	25.46587
458.606	21.25059
458.816	0.17561
459.027	54.97546
459.237	52.86748
459.448	33.89672
459.659	-48.28761
459.869	61.29953
460.08	-25.11117
460.29	8.60532
460.501	-23.00407
460.711	31.78897
460.922	57.08346
461.132	2.283
461.343	52.86748
461.553	38.11228
461.764	-12.46822
461.974	42.32793
462.184	12.82031
462.395	42.32793
462.605	2.283
462.816	59.19149
463.026	61.29953
463.236	-18.7898
463.447	-4.03909
463.657	69.73195
463.867	50.75953
464.078	25.46587
464.288	-58.82135
464.498	-56.71465
464.709	-56.71465
464.919	78.16474
465.129	-23.00407
465.339	17.0354
465.55	17.0354
465.76	-10.36097
465.97	12.82031
466.18	29.68125
466.391	12.82031
466.601	95.03138
466.811	-29.32529
467.021	2.283
467.231	67.62381
467.441	44.4358
467.651	29.68125
467.862	-6.14641
468.072	-46.18078
468.282	0.17561
468.492	27.57355
468.702	-12.46822
468.912	-48.28761
469.122	19.14299
469.332	10.7128
469.542	-18.7898
469.752	0.17561
469.962	-65.14129
470.172	33.89672
470.382	63.4076
470.592	14.92785
470.802	42.32793
471.012	4.39042
471.222	57.08346
471.432	-54.60793
471.642	-31.43231
471.852	25.46587
472.062	-37.75323
472.272	-29.32529
472.482	21.25059
472.691	-14.57544
472.901	8.60532
473.111	42.32793
473.321	-41.96706
473.531	76.05651
473.741	-12.46822
473.95	-23.00407
474.16	-79.88693
474.37	-54.60793
474.58	105.57375
474.79	40.22009
474.999	-4.03909
475.209	42.32793
475.419	-31.43231
475.628	-75.67402
475.838	-8.2537
476.048	12.82031
476.258	-6.14641
476.467	63.4076
476.677	65.5157
476.886	61.29953
477.096	-10.36097
477.306	-25.11117
477.515	42.32793
477.725	2.283
477.935	-14.57544
478.144	73.9483
478.354	46.54368
478.563	-41.96706
478.773	38.11228
478.982	-46.18078
479.192	8.60532
479.401	71.84011
479.611	-8.2537
479.82	6.49786
480.03	-50.3944
480.239	84.48956
480.449	4.39042
480.658	50.75953
480.868	33.89672
481.077	8.60532
481.287	63.4076
481.496	42.32793
481.705	31.78897
481.915	50.75953
482.124	59.19149
482.333	-8.2537
482.543	-33.53931
482.752	-25.11117
482.961	88.70622
483.171	4.39042
483.38	-58.82135
483.589	-31.43231
483.799	25.46587
484.008	54.97546
484.217	4.39042
484.426	21.25059
484.636	76.05651
484.845	61.29953
485.054	4.39042
485.263	48.65159
485.472	-109.3744
485.682	29.68125
485.891	27.57355
486.1	8.60532
486.309	8.60532
486.518	12.82031
486.727	17.0354
486.936	21.25059
487.146	42.32793
487.355	-4.03909
487.564	12.82031
487.773	-12.46822
487.982	59.19149
488.191	-16.68263
488.4	69.73195
488.609	-14.57544
488.818	-31.43231
489.027	92.92297
489.236	8.60532
489.445	44.4358
489.654	0.17561
489.863	-25.11117
490.072	25.46587
490.281	-4.03909
490.49	-6.14641
490.698	-25.11117
490.907	44.4358
491.116	-16.68263
491.325	21.25059
491.534	-25.11117
491.743	-46.18078
491.952	48.65159
492.16	38.11228
492.369	50.75953
492.578	143.53082
492.787	33.89672
492.996	25.46587
493.204	38.11228
493.413	-14.57544
493.622	65.5157
493.831	29.68125
494.039	0.17561
494.248	8.60532
494.457	44.4358
494.665	63.4076
494.874	4.39042
495.083	63.4076
495.291	27.57355
495.5	67.62381
495.709	17.0354
495.917	6.49786
496.126	33.89672
496.335	-16.68263
496.543	17.0354
496.752	111.89944
496.96	-48.28761
497.169	44.4358
497.377	59.19149
497.586	-20.89695
497.794	-12.46822
498.003	52.86748
498.211	14.92785
498.42	42.32793
498.628	-4.03909
498.837	21.25059
499.045	-6.14641
499.254	80.27299
499.462	23.35822
499.671	-25.11117
499.879	-33.53931
500.087	-16.68263
500.296	54.97546
500.504	27.57355
500.713	-63.03467
500.921	71.84011
501.129	-25.11117
501.338	-63.03467
501.546	2.283
501.754	8.60532
501.962	-6.14641
502.171	17.0354
502.379	27.57355
502.587	-10.36097
502.795	27.57355
503.004	46.54368
503.212	-46.18078
503.42	8.60532
503.628	29.68125
503.837	-8.2537
504.045	27.57355
504.253	21.25059
504.461	33.89672
504.669	36.00449
504.877	-39.86016
505.085	-20.89695
505.294	-37.75323
505.502	48.65159
505.71	14.92785
505.918	63.4076
506.126	71.84011
506.334	36.00449
506.542	-16.68263
506.75	25.46587
506.958	-16.68263
507.166	17.0354
507.374	38.11228
507.582	-33.53931
507.79	80.27299
507.998	50.75953
508.206	-46.18078
508.414	36.00449
508.622	10.7128
508.83	12.82031
509.037	54.97546
509.245	33.89672
509.453	-33.53931
509.661	29.68125
509.869	46.54368
510.077	17.0354
510.285	48.65159
510.492	44.4358
510.7	25.46587
510.908	-12.46822
511.116	25.46587
511.324	29.68125
511.531	46.54368
511.739	46.54368
511.947	-39.86016
512.155	25.46587
512.362	-4.03909
512.57	38.11228
512.778	-69.35446
512.985	21.25059
513.193	17.0354
513.401	2.283
513.608	14.92785
513.816	82.38126
514.024	-6.14641
514.231	-65.14129
514.439	29.68125
514.646	-35.64629
514.854	8.60532
515.061	33.89672
515.269	-25.11117
515.477	27.57355
515.684	10.7128
515.892	52.86748
516.099	0.17561
516.307	2.283
516.514	-14.57544
516.722	19.14299
516.929	21.25059
517.136	-23.00407
517.344	0.17561
517.551	54.97546
517.759	-25.11117
517.966	61.29953
518.173	25.46587
518.381	-39.86016
518.588	17.0354
518.796	17.0354
519.003	10.7128
519.21	-6.14641
519.418	-54.60793
519.625	-14.57544
519.832	-50.3944
520.039	101.35674
520.247	-10.36097
520.454	-23.00407
520.661	21.25059
520.868	-16.68263
521.076	27.57355
521.283	63.4076
521.49	-6.14641
521.697	25.46587
521.904	-25.11117
522.112	-6.14641
522.319	17.0354
522.526	-25.11117
522.733	27.57355
522.94	101.35674
523.147	-46.18078
523.354	-8.2537
523.561	-27.21824
523.768	63.4076
523.975	-6.14641
524.183	14.92785
524.39	21.25059
524.597	59.19149
524.804	-14.57544
525.011	4.39042
525.218	-25.11117
525.425	80.27299
525.632	-6.14641
525.838	8.60532
526.045	33.89672
526.252	33.89672
526.459	-41.96706
526.666	-12.46822
526.873	-35.64629
527.08	50.75953
527.287	-10.36097
527.494	76.05651
527.701	25.46587
527.907	2.283
528.114	33.89672
528.321	17.0354
528.528	67.62381
528.735	10.7128
528.941	-23.00407
529.148	-41.96706
529.355	46.54368
529.562	27.57355
529.768	-31.43231
529.975	-54.60793
530.182	17.0354
530.388	-1.93175
530.595	38.11228
530.802	4.39042
531.008	-18.7898
531.215	27.57355
531.422	40.22009
531.628	52.86748
531.835	63.4076
532.042	-37.75323
532.248	-44.07393
532.455	-1.93175
532.661	0.17561
532.868	27.57355
533.074	-10.36097
533.281	-50.3944
533.487	6.49786
533.694	8.60532
533.9	17.0354
534.107	4.39042
534.313	6.49786
534.52	23.35822
534.726	4.39042
534.933	59.19149
535.139	6.49786
535.345	17.0354
535.552	-8.2537
535.758	38.11228
535.965	-25.11117
536.171	57.08346
536.377	2.283
536.584	-14.57544
536.79	48.65159
536.996	-12.46822
537.203	-10.36097
537.409	33.89672
537.615	12.82031
537.821	4.39042
538.028	36.00449
538.234	-29.32529
538.44	-41.96706
538.646	-60.92802
538.853	-25.11117
539.059	95.03138
539.265	-8.2537
539.471	59.19149
539.677	2.283
539.883	-6.14641
540.09	80.27299
540.296	42.32793
540.502	-39.86016
540.708	42.32793
540.914	10.7128
541.12	42.32793
541.326	69.73195
541.532	40.22009
541.738	17.0354
541.944	33.89672
542.15	-41.96706
542.356	23.35822
542.562	54.97546
542.768	-16.68263
542.974	40.22009
543.18	-46.18078
543.386	-46.18078
543.592	-50.3944
543.798	84.48956
544.004	10.7128
544.21	25.46587
544.415	38.11228
544.621	-46.18078
544.827	-6.14641
545.033	50.75953
545.239	42.32793
545.445	-20.89695
545.651	33.89672
545.856	-29.32529
546.062	-27.21824
546.268	33.89672
546.474	25.46587
546.679	-58.82135
546.885	-48.28761
547.091	33.89672
547.297	29.68125
547.502	19.14299
547.708	84.48956
547.914	17.0354
548.119	0.17561
548.325	-16.68263
548.531	17.0354
548.736	29.68125
548.942	38.11228
549.147	14.92785
549.353	-12.46822
549.559	105.57375
549.764	33.89672
549.97	-10.36097
550.175	-4.03909
550.381	54.97546
550.586	-8.2537
550.792	-4.03909
550.997	17.0354
551.203	-8.2537
551.408	38.11228
551.614	0.17561
551.819	-35.64629
552.025	27.57355
552.23	-18.7898
552.435	-8.2537
552.641	19.14299
552.846	84.48956
553.052	-12.46822
553.257	50.75953
553.462	-29.32529
553.668	-16.68263
553.873	-29.32529
554.078	-14.57544
554.283	33.89672
554.489	33.89672
554.694	19.14299
554.899	6.49786
555.105	-8.2537
555.31	54.97546
555.515	-33.53931
555.72	-23.00407
555.925	4.39042
556.131	14.92785
556.336	118.22533
556.541	19.14299
556.746	67.62381
556.951	17.0354
557.156	-4.03909
557.361	-41.96706
557.567	-4.03909
557.772	63.4076
557.977	-35.64629
558.182	-8.2537
558.387	50.75953
558.592	14.92785
558.797	38.11228
559.002	12.82031
559.207	29.68125
559.412	67.62381
559.617	21.25059
559.822	29.68125
560.027	4.39042
560.232	21.25059
560.437	25.46587
560.642	-20.89695
560.847	0.17561
561.051	-27.21824
561.256	17.0354
561.461	23.35822
561.666	-56.71465
561.871	65.5157
562.076	0.17561
562.281	0.17561
562.485	0.17561
562.69	-10.36097
562.895	29.68125
563.1	-54.60793
563.305	52.86748
563.509	2.283
563.714	-33.53931
563.919	25.46587
564.123	59.19149
564.328	44.4358
564.533	44.4358
564.737	59.19149
564.942	33.89672
565.147	27.57355
565.351	65.5157
565.556	21.25059
565.761	19.14299
565.965	-23.00407
566.17	6.49786
566.374	33.89672
566.579	17.0354
566.784	8.60532
566.988	-25.11117
567.193	59.19149
567.397	-58.82135
567.602	0.17561
567.806	130.87769
568.011	19.14299
568.215	-14.57544
568.42	-56.71465
568.624	33.89672
568.828	-39.86016
569.033	40.22009
569.237	19.14299
569.442	-10.36097
569.646	25.46587
569.85	48.65159
570.055	67.62381
570.259	44.4358
570.463	8.60532
570.668	33.89672
570.872	8.60532
571.076	-16.68263
571.281	61.29953
571.485	52.86748
571.689	17.0354
571.893	120.334
572.098	12.82031
572.302	14.92785
572.506	61.29953
572.71	109.79086
572.914	86.59788
573.119	17.0354
573.323	95.03138
573.527	-25.11117
573.731	-10.36097
573.935	40.22009
574.139	86.59788
574.343	-29.32529
574.547	33.89672
574.751	46.54368
574.955	-16.68263
575.159	38.11228
575.364	42.32793
575.568	10.7128
575.772	31.78897
575.976	38.11228
576.18	8.60532
576.383	44.4358
576.587	-8.2537
576.791	67.62381
576.995	4.39042
577.199	8.60532
577.403	52.86748
577.607	-39.86016
577.811	86.59788
578.015	-6.14641
578.219	73.9483
578.422	-41.96706
578.626	6.49786
578.83	2.283
579.034	38.11228
579.238	17.0354
579.442	38.11228
579.645	-8.2537
579.849	-50.3944
580.053	2.283
580.257	71.84011
580.46	42.32793
580.664	44.4358
580.868	10.7128
581.071	-12.46822
581.275	-14.57544
581.479	59.19149
581.682	0.17561
581.886	0.17561
582.09	2.283
582.293	44.4358
582.497	54.97546
582.7	17.0354
582.904	-14.57544
583.107	-4.03909
583.311	50.75953
583.515	25.46587
583.718	-58.82135
583.922	-23.00407
584.125	46.54368
584.329	-4.03909
584.532	-33.53931
584.735	-4.03909
584.939	0.17561
585.142	-33.53931
585.346	-31.43231
585.549	-58.82135
585.753	14.92785
585.956	-6.14641
586.159	-16.68263
586.363	-12.46822
586.566	-20.89695
586.769	80.27299
586.973	54.97546
587.176	2.283
587.379	19.14299
587.582	44.4358
587.786	17.0354
587.989	76.05651
588.192	4.39042
588.395	6.49786
588.599	-8.2537
588.802	-56.71465
589.005	59.19149
589.208	44.4358
589.411	21.25059
589.615	-33.53931
589.818	-25.11117
590.021	52.86748
590.224	-14.57544
590.427	59.19149
590.63	36.00449
590.833	29.68125
591.036	67.62381
591.239	8.60532
591.442	65.5157
591.645	-1.93175
591.848	48.65159
592.051	-16.68263
592.254	122.44269
592.457	17.0354
592.66	-18.7898
592.863	38.11228
593.066	17.0354
593.269	36.00449
593.472	-48.28761
593.675	-60.92802
593.878	19.14299
594.081	-39.86016
594.284	44.4358
594.486	-14.57544
594.689	92.92297
594.892	-4.03909
595.095	-23.00407
595.298	67.62381
595.5	19.14299
595.703	-33.53931
595.906	19.14299
596.109	-20.89695
596.311	-23.00407
596.514	-33.53931
596.717	33.89672
596.92	8.60532
597.122	-20.89695
597.325	-4.03909
597.528	59.19149
597.73	-23.00407
597.933	33.89672
598.136	33.89672
598.338	27.57355
598.541	86.59788
598.743	19.14299
598.946	36.00449
599.148	-25.11117
599.351	33.89672
599.554	-8.2537
599.756	52.86748
599.959	19.14299
600.161	25.46587
600.363	-1.93175
600.566	33.89672
600.768	78.16474
600.971	0.17561
601.173	-52.50118
601.376	31.78897
601.578	21.25059
601.78	61.29953
601.983	-23.00407
602.185	-4.03909
602.388	19.14299
602.59	4.39042
602.792	-25.11117
602.995	71.84011
603.197	69.73195
603.399	101.35674
603.601	44.4358
603.804	-50.3944
604.006	69.73195
604.208	2.283
604.41	135.09531
604.613	50.75953
604.815	-25.11117
605.017	54.97546
605.219	54.97546
605.421	12.82031
605.623	59.19149
605.826	61.29953
606.028	59.19149
606.23	76.05651
606.432	-16.68263
606.634	0.17561
606.836	42.32793
607.038	46.54368
607.24	84.48956
607.442	27.57355
607.644	61.29953
607.846	4.39042
608.048	12.82031
608.25	-86.2061
608.452	8.60532
608.654	-12.46822
608.856	25.46587
609.058	8.60532
609.26	27.57355
609.462	19.14299
609.664	31.78897
609.866	0.17561
610.067	4.39042
610.269	33.89672
610.471	67.62381
610.673	8.60532
610.875	12.82031
611.077	25.46587
611.278	29.68125
611.48	38.11228
611.682	42.32793
611.884	40.22009
612.085	2.283
612.287	-79.88693
612.489	-20.89695
612.69	-6.14641
612.892	4.39042
613.094	4.39042
613.295	88.70622
613.497	19.14299
613.699	0.17561
613.9	-12.46822
614.102	33.89672
614.304	23.35822
614.505	44.4358
614.707	46.54368
614.908	-20.89695
615.11	-12.46822
615.311	61.29953
615.513	67.62381
615.714	2.283
615.916	33.89672
616.117	0.17561
616.319	-16.68263
616.52	17.0354
616.722	61.29953
616.923	33.89672
617.124	-8.2537
617.326	42.32793
617.527	25.46587
617.729	8.60532
617.93	46.54368
618.131	25.46587
618.333	50.75953
618.534	-4.03909
618.735	23.35822
618.937	69.73195
619.138	27.57355
619.339	-12.46822
619.54	-20.89695
619.742	29.68125
619.943	10.7128
620.144	-50.3944
620.345	-8.2537
620.546	-6.14641
620.748	-33.53931
620.949	42.32793
621.15	0.17561
621.351	29.68125
621.552	-31.43231
621.753	-16.68263
621.954	4.39042
622.155	-1.93175
622.356	42.32793
622.558	-65.14129
622.759	33.89672
622.96	36.00449
623.161	33.89672
623.362	46.54368
623.563	25.46587
623.764	25.46587
623.965	-33.53931
624.166	19.14299
624.366	-8.2537
624.567	2.283
624.768	-35.64629
624.969	25.46587
625.17	82.38126
625.371	14.92785
625.572	48.65159
625.773	25.46587
625.973	10.7128
626.174	57.08346
626.375	76.05651
626.576	38.11228
626.777	21.25059
626.977	-8.2537
627.178	-8.2537
627.379	10.7128
627.58	-58.82135
627.78	42.32793
627.981	6.49786
628.182	78.16474
628.382	61.29953
628.583	27.57355
628.784	25.46587
628.984	-67.24789
629.185	-8.2537
629.386	-4.03909
629.586	-75.67402
629.787	27.57355
629.987	42.32793
630.188	10.7128
630.388	17.0354
630.589	67.62381
630.79	25.46587
630.99	21.25059
631.191	14.92785
631.391	33.89672
631.591	-41.96706
631.792	-12.46822
631.992	-12.46822
632.193	17.0354
632.393	65.5157
632.594	17.0354
632.794	-10.36097
632.994	40.22009
633.195	-67.24789
633.395	27.57355
633.595	33.89672
633.796	40.22009
633.996	-33.53931
634.196	-16.68263
634.397	99.24826
634.597	57.08346
634.797	44.4358
634.997	84.48956
635.198	54.97546
635.398	17.0354
635.598	67.62381
635.798	50.75953
635.998	19.14299
636.199	-4.03909
636.399	25.46587
636.599	42.32793
636.799	109.79086
636.999	19.14299
637.199	33.89672
637.399	-12.46822
637.599	-14.57544
637.799	4.39042
637.999	-4.03909
638.199	-4.03909
638.399	33.89672
638.599	-12.46822
638.799	-20.89695
638.999	-10.36097
639.199	-92.52504
639.399	-6.14641
639.599	44.4358
639.799	92.92297
639.999	-31.43231
640.199	27.57355
640.399	40.22009
640.599	19.14299
640.799	38.11228
640.998	36.00449
641.198	-23.00407
641.398	67.62381
641.598	-44.07393
641.798	-20.89695
641.997	46.54368
642.197	-29.32529
642.397	-12.46822
642.597	-10.36097
642.796	50.75953
642.996	-1.93175
643.196	-6.14641
643.395	-27.21824
643.595	-6.14641
643.795	27.57355
643.994	-65.14129
644.194	27.57355
644.394	4.39042
644.593	29.68125
644.793	-4.03909
644.992	2.283
645.192	76.05651
645.392	-8.2537
645.591	-25.11117
645.791	63.4076
645.99	27.57355
646.19	4.39042
646.389	14.92785
646.589	17.0354
646.788	4.39042
646.987	-6.14641
647.187	50.75953
647.386	33.89672
647.586	17.0354
647.785	25.46587
647.984	33.89672
648.184	78.16474
648.383	2.283
648.582	61.29953
648.782	-23.00407
648.981	76.05651
649.18	12.82031
649.38	88.70622
649.579	-12.46822
649.778	-81.99334
649.977	0.17561
650.177	27.57355
650.376	4.39042
650.575	-23.00407
650.774	-20.89695
650.973	33.89672
651.173	-41.96706
651.372	-25.11117
651.571	-20.89695
651.77	-4.03909
651.969	44.4358
652.168	44.4358
652.367	25.46587
652.566	12.82031
652.765	-58.82135
652.964	-8.2537
653.163	-6.14641
653.362	4.39042
653.561	40.22009
653.76	36.00449
653.959	2.283
654.158	61.29953
654.357	21.25059
654.556	80.27299
654.755	21.25059
654.954	42.32793
655.153	-33.53931
655.352	-71.461
655.551	33.89672
655.749	63.4076
655.948	23.35822
656.147	71.84011
656.346	10.7128
656.545	59.19149
656.743	23.35822
656.942	-4.03909
657.141	50.75953
657.34	10.7128
657.538	33.89672
657.737	17.0354
657.936	14.92785
658.135	40.22009
658.333	-8.2537
658.532	-14.57544
658.731	65.5157
658.929	-8.2537
659.128	-27.21824
659.326	4.39042
659.525	21.25059
659.724	25.46587
659.922	-14.57544
660.121	-46.18078
660.319	14.92785
660.518	65.5157
660.716	29.68125
660.915	44.4358
661.113	8.60532
661.312	23.35822
661.51	42.32793
661.709	42.32793
661.907	42.32793
662.105	61.29953
662.304	-31.43231
662.502	50.75953
662.701	-8.2537
662.899	4.39042
663.097	0.17561
663.296	25.46587
663.494	-6.14641
663.692	21.25059
663.891	-14.57544
664.089	50.75953
664.287	52.86748
664.485	0.17561
664.684	71.84011
664.882	-23.00407
665.08	-39.86016
665.278	19.14299
665.476	-37.75323
665.675	67.62381
665.873	0.17561
666.071	33.89672
666.269	4.39042
666.467	80.27299
666.665	-16.68263
666.863	50.75953
667.061	25.46587
667.259	-50.3944
667.457	38.11228
667.655	17.0354
667.853	14.92785
668.051	-41.96706
668.249	38.11228
668.447	-8.2537
668.645	-29.32529
668.843	-10.36097
669.041	-37.75323
669.239	17.0354
669.437	-16.68263
669.635	36.00449
669.833	0.17561
670.031	2.283
670.229	21.25059
670.426	27.57355
670.624	-33.53931
670.822	2.283
671.02	-12.46822
671.218	88.70622
671.415	-1.93175
671.613	-27.21824
671.811	-33.53931
672.009	57.08346
672.206	-6.14641
672.404	21.25059
672.602	-6.14641
672.799	27.57355
672.997	29.68125
673.195	61.29953
673.392	-54.60793
673.59	54.97546
673.788	-23.00407
673.985	29.68125
674.183	17.0354
674.38	67.62381
674.578	76.05651
674.775	-63.03467
674.973	-48.28761
675.17	42.32793
675.368	14.92785
675.565	-8.2537
675.763	17.0354
675.96	21.25059
676.158	-6.14641
676.355	44.4358
676.553	-37.75323
676.75	-37.75323
676.947	33.89672
677.145	17.0354
677.342	33.89672
677.539	33.89672
677.737	-8.2537
677.934	42.32793
678.131	10.7128
678.329	57.08346
678.526	46.54368
678.723	69.73195
678.92	-33.53931
679.118	61.29953
679.315	67.62381
679.512	-41.96706
679.709	-18.7898
679.906	38.11228
680.104	50.75953
680.301	4.39042
680.498	-8.2537
680.695	0.17561
680.892	-12.46822
681.089	-6.14641
681.286	-4.03909
681.483	-20.89695
681.68	36.00449
681.877	-6.14641
682.075	0.17561
682.272	63.4076
682.469	-18.7898
682.665	38.11228
682.862	-41.96706
683.059	71.84011
683.256	-58.82135
683.453	-20.89695
683.65	-16.68263
683.847	-6.14641
684.044	-33.53931
684.241	-8.2537
684.438	-14.57544
684.635	42.32793
684.831	88.70622
685.028	2.283
685.225	-6.14641
685.422	4.39042
685.619	25.46587
685.815	17.0354
686.012	-8.2537
686.209	92.92297
686.405	71.84011
686.602	61.29953
686.799	-23.00407
686.996	27.57355
687.192	80.27299
687.389	27.57355
687.586	42.32793
687.782	52.86748
687.979	-54.60793
688.175	25.46587
688.372	42.32793
688.568	19.14299
688.765	2.283
688.962	4.39042
689.158	103.46523
689.355	40.22009
689.551	44.4358
689.748	33.89672
689.944	-33.53931
690.14	61.29953
690.337	-23.00407
690.533	31.78897
690.73	-31.43231
690.926	59.19149
691.123	21.25059
691.319	46.54368
691.515	8.60532
691.712	21.25059
691.908	19.14299
692.104	0.17561
692.301	25.46587
692.497	71.84011
692.693	-25.11117
692.889	42.32793
693.086	14.92785
693.282	36.00449
693.478	61.29953
693.674	65.5157
693.87	-8.2537
694.067	84.48956
694.263	36.00449
694.459	4.39042
694.655	-109.3744
694.851	69.73195
695.047	61.29953
695.243	-33.53931
695.439	-60.92802
695.635	6.49786
695.831	19.14299
696.027	14.92785
696.224	-1.93175
696.42	103.46523
696.615	61.29953
696.811	19.14299
697.007	84.48956
697.203	-14.57544
697.399	31.78897
697.595	59.19149
697.791	12.82031
697.987	2.283
698.183	-25.11117
698.379	0.17561
698.575	-56.71465
698.77	-39.86016
698.966	-8.2537
699.162	80.27299
699.358	-10.36097
699.554	4.39042
699.749	33.89672
699.945	63.4076
700.141	78.16474
700.337	78.16474
700.532	0.17561
700.728	50.75953
700.924	-50.3944
701.119	12.82031
701.315	-4.03909
701.511	61.29953
701.706	27.57355
701.902	61.29953
702.097	40.22009
702.293	6.49786
702.489	36.00449
702.684	-8.2537
702.88	105.57375
703.075	80.27299
703.271	-20.89695
703.466	12.82031
703.662	8.60532
703.857	52.86748
704.053	0.17561
704.248	2.283
704.443	-16.68263
704.639	-41.96706
704.834	12.82031
705.03	-8.2537
705.225	42.32793
705.42	4.39042
705.616	36.00449
705.811	29.68125
706.006	-10.36097
706.202	19.14299
706.397	12.82031
706.592	95.03138
706.787	-12.46822
706.983	52.86748
707.178	-33.53931
707.373	-25.11117
707.568	109.79086
707.763	-4.03909
707.959	6.49786
708.154	-27.21824
708.349	-52.50118
708.544	-18.7898
708.739	38.11228
708.934	71.84011
709.129	50.75953
709.324	-4.03909
709.519	50.75953
709.714	17.0354
709.909	-16.68263
710.104	0.17561
710.299	-10.36097
710.494	-14.57544
710.689	-27.21824
710.884	8.60532
711.079	-23.00407
711.274	-29.32529
711.469	38.11228
711.664	52.86748
711.859	-10.36097
712.054	67.62381
712.249	23.35822
712.443	8.60532
712.638	21.25059
712.833	-20.89695
713.028	-4.03909
713.223	27.57355
713.417	76.05651
713.612	88.70622
713.807	25.46587
714.002	36.00449
714.196	38.11228
714.391	50.75953
714.586	67.62381
714.78	31.78897
714.975	14.92785
715.17	-33.53931
715.364	8.60532
715.559	84.48956
715.754	-37.75323
715.948	71.84011
716.143	71.84011
716.337	67.62381
716.532	-14.57544
716.726	21.25059
716.921	0.17561
717.115	2.283
717.31	29.68125
717.504	12.82031
717.699	10.7128
717.893	50.75953
718.088	-16.68263
718.282	59.19149
718.476	-31.43231
718.671	-23.00407
718.865	-20.89695
719.059	21.25059
719.254	12.82031
719.448	0.17561
719.642	-25.11117
719.837	59.19149
720.031	48.65159
720.225	-63.03467
720.419	-23.00407
720.614	-20.89695
720.808	44.4358
721.002	10.7128
721.196	12.82031
721.39	-33.53931
721.585	-18.7898
721.779	101.35674
721.973	21.25059
722.167	52.86748
722.361	42.32793
722.555	8.60532
722.749	50.75953
722.943	-54.60793
723.137	61.29953
723.331	-25.11117
723.525	33.89672
723.719	25.46587
723.913	-14.57544
724.107	21.25059
724.301	78.16474
724.495	29.68125
724.689	36.00449
724.883	21.25059
725.077	46.54368
725.271	21.25059
725.465	29.68125
725.659	-25.11117
725.853	-14.57544
726.046	-6.14641
726.24	-4.03909
726.434	54.97546
726.628	33.89672
726.822	27.57355
727.015	-20.89695
727.209	33.89672
727.403	17.0354
727.596	27.57355
727.79	29.68125
727.984	0.17561
728.177	8.60532
728.371	48.65159
728.565	-27.21824
728.758	50.75953
728.952	36.00449
729.146	-8.2537
729.339	-44.07393
729.533	38.11228
729.726	-50.3944
729.92	0.17561
730.113	-37.75323
730.307	-18.7898
730.5	21.25059
730.694	-35.64629
730.887	-8.2537
731.081	38.11228
731.274	23.35822
731.468	27.57355
731.661	-56.71465
731.854	17.0354
732.048	14.92785
732.241	19.14299
732.435	21.25059
732.628	6.49786
732.821	-75.67402
733.014	-14.57544
733.208	38.11228
733.401	71.84011
733.594	-23.00407
733.788	-18.7898
733.981	-29.32529
734.174	63.4076
734.367	50.75953
734.56	25.46587
734.754	-25.11117
734.947	12.82031
735.14	-8.2537
735.333	10.7128
735.526	8.60532
735.719	50.75953
735.912	-41.96706
736.105	29.68125
736.298	90.81458
736.491	29.68125
736.684	-14.57544
736.877	48.65159
737.07	59.19149
737.263	12.82031
737.456	52.86748
737.649	6.49786
737.842	-33.53931
738.035	19.14299
738.228	27.57355
738.421	46.54368
738.614	50.75953
738.807	-31.43231
739	-67.24789
739.192	50.75953
739.385	6.49786
739.578	48.65159
739.771	48.65159
739.964	-67.24789
740.156	-48.28761
740.349	54.97546
740.542	-20.89695
740.735	50.75953
740.927	-4.03909
741.12	-29.32529
741.313	2.283
741.505	4.39042
741.698	-16.68263
741.891	50.75953
742.083	73.9483
742.276	-39.86016
742.468	-14.57544
742.661	78.16474
742.854	36.00449
743.046	50.75953
743.239	40.22009
743.431	36.00449
743.624	36.00449
743.816	-16.68263
744.009	-20.89695
744.201	54.97546
744.393	69.73195
744.586	19.14299
744.778	-12.46822
744.971	17.0354
745.163	33.89672
745.355	-33.53931
745.548	-10.36097
745.74	-6.14641
745.932	59.19149
746.125	46.54368
746.317	-18.7898
746.509	6.49786
746.702	44.4358
746.894	44.4358
747.086	-33.53931
747.278	48.65159
747.471	12.82031
747.663	40.22009
747.855	-48.28761
748.047	-44.07393
748.239	-6.14641
748.431	23.35822
748.623	-20.89695
748.815	63.4076
749.008	92.92297
749.2	-58.82135
749.392	-10.36097
749.584	69.73195
749.776	-8.2537
749.968	25.46587
750.16	21.25059
750.352	-12.46822
750.544	44.4358
750.736	8.60532
750.928	-16.68263
751.12	-27.21824
751.311	-46.18078
751.503	-48.28761
751.695	38.11228
751.887	80.27299
752.079	-58.82135
752.271	-23.00407
752.463	92.92297
752.654	71.84011
752.846	67.62381
753.038	-16.68263
753.23	33.89672
753.421	4.39042
753.613	21.25059
753.805	38.11228
753.997	12.82031
754.188	-41.96706
754.38	-16.68263
754.572	67.62381
754.763	4.39042
754.955	38.11228
755.146	14.92785
755.338	-37.75323
755.53	-44.07393
755.721	-37.75323
755.913	27.57355
756.104	23.35822
756.296	54.97546
756.487	42.32793
756.679	-6.14641
756.87	42.32793
757.062	-48.28761
757.253	12.82031
757.445	44.4358
757.636	17.0354
757.827	6.49786
758.019	25.46587
758.21	101.35674
758.401	50.75953
758.593	0.17561
758.784	2.283
758.975	-25.11117
759.167	-20.89695
759.358	52.86748
759.549	12.82031
759.74	97.13981
759.932	-25.11117
760.123	17.0354
760.314	-33.53931
760.505	-46.18078
760.696	29.68125
760.888	23.35822
761.079	33.89672
761.27	-31.43231
761.461	92.92297
761.652	25.46587
761.843	23.35822
762.034	52.86748
762.225	-20.89695
762.416	23.35822
762.607	-6.14641
762.798	-41.96706
762.989	33.89672
763.18	40.22009
763.371	76.05651
763.562	50.75953
763.753	21.25059
763.944	-16.68263
764.135	25.46587
764.326	44.4358
764.517	-8.2537
764.708	-25.11117
764.899	10.7128
765.089	50.75953
765.28	4.39042
765.471	17.0354
765.662	46.54368
765.853	54.97546
766.043	-41.96706
766.234	69.73195
766.425	-58.82135
766.615	38.11228
766.806	-67.24789
766.997	-14.57544
767.187	59.19149
767.378	46.54368
767.569	4.39042
767.759	76.05651
767.95	14.92785
768.141	8.60532
768.331	44.4358
768.522	42.32793
768.712	61.29953
768.903	8.60532
769.093	61.29953
769.284	65.5157
769.474	31.78897
769.665	31.78897
769.855	63.4076
770.046	-16.68263
770.236	101.35674
770.426	-46.18078
770.617	33.89672
770.807	23.35822
770.998	-10.36097
771.188	50.75953
771.378	-4.03909
771.569	-33.53931
771.759	21.25059
771.949	52.86748
772.139	17.0354
772.33	78.16474
772.52	4.39042
772.71	19.14299
772.9	17.0354
773.09	-16.68263
773.281	63.4076
773.471	29.68125
773.661	19.14299
773.851	-52.50118
774.041	76.05651
774.231	-27.21824
774.421	29.68125
774.611	-25.11117
774.802	-4.03909
774.992	46.54368
775.182	61.29953
775.372	48.65159
775.562	42.32793
775.752	12.82031
775.942	-25.11117
776.131	54.97546
776.321	-14.57544
776.511	-6.14641
776.701	-14.57544
776.891	54.97546
777.081	-37.75323
777.271	-25.11117
777.461	8.60532
777.651	21.25059
777.84	63.4076
778.03	40.22009
778.22	17.0354
778.41	6.49786
778.599	-6.14641
778.789	-25.11117
778.979	92.92297
779.169	6.49786
779.358	-39.86016
779.548	-20.89695
779.738	17.0354
779.927	25.46587
780.117	29.68125
780.307	25.46587
780.496	33.89672
780.686	-41.96706
780.875	-37.75323
781.065	-29.32529
781.254	31.78897
781.444	12.82031
781.633	2.283
781.823	76.05651
782.012	63.4076
782.202	-16.68263
782.391	-31.43231
782.581	27.57355
782.77	-16.68263
782.96	-27.21824
783.149	19.14299
783.338	-16.68263
783.528	0.17561
783.717	54.97546
783.906	50.75953
784.096	-6.14641
784.285	59.19149
784.474	8.60532
784.663	40.22009
784.853	-56.71465
785.042	19.14299
785.231	-10.36097
785.42	8.60532
785.61	50.75953
785.799	50.75953
785.988	25.46587
786.177	48.65159
786.366	-16.68263
786.555	-25.11117
786.744	-20.89695
786.933	17.0354
787.122	6.49786
787.312	42.32793
787.501	-23.00407
787.69	54.97546
787.879	33.89672
788.068	25.46587
788.257	8.60532
788.445	33.89672
788.634	-44.07393
788.823	12.82031
789.012	63.4076
789.201	59.19149
789.39	84.48956
789.579	12.82031
789.768	17.0354
789.957	-50.3944
790.145	42.32793
790.334	33.89672
790.523	-54.60793
790.712	-23.00407
790.9	63.4076
791.089	-58.82135
791.278	-20.89695
791.467	69.73195
791.655	-31.43231
791.844	38.11228
792.033	-27.21824
792.221	4.39042
792.41	63.4076
792.599	21.25059
792.787	86.59788
792.976	-23.00407
793.164	-8.2537
793.353	76.05651
793.541	21.25059
793.73	33.89672
793.918	-18.7898
794.107	76.05651
794.295	-16.68263
794.484	-27.21824
794.672	36.00449
794.861	80.27299
795.049	61.29953
795.238	-6.14641
795.426	-20.89695
795.614	-4.03909
795.803	73.9483
795.991	4.39042
796.179	-37.75323
796.368	52.86748
796.556	-75.67402
796.744	36.00449
796.932	46.54368
797.121	-12.46822
797.309	42.32793
797.497	57.08346
797.685	25.46587
797.874	23.35822
798.062	12.82031
798.25	44.4358
798.438	-1.93175
798.626	8.60532
798.814	31.78897
799.002	38.11228
799.19	33.89672
799.378	8.60532
799.566	42.32793
799.755	-16.68263
799.943	-14.57544
800.131	23.35822
800.318	-8.2537
800.506	8.60532
800.694	10.7128
800.882	2.283
801.07	19.14299
801.258	42.32793
801.446	-12.46822
801.634	36.00449
801.822	42.32793
802.01	50.75953
802.197	21.25059
802.385	0.17561
802.573	8.60532
802.761	-41.96706
802.949	21.25059
803.136	71.84011
803.324	40.22009
803.512	12.82031
803.699	36.00449
803.887	-41.96706
804.075	-8.2537
804.262	-50.3944
804.45	-20.89695
804.638	-71.461
804.825	-8.2537
805.013	2.283
805.201	27.57355
805.388	-16.68263
805.576	14.92785
805.763	50.75953
805.951	-39.86016
806.138	-14.57544
806.326	-12.46822
806.513	-6.14641
806.701	42.32793
806.888	6.49786
807.075	-58.82135
807.263	-18.7898
807.45	44.4358
807.638	48.65159
807.825	-27.21824
808.012	14.92785
808.2	46.54368
808.387	33.89672
808.574	-6.14641
808.761	-50.3944
808.949	23.35822
809.136	17.0354
809.323	12.82031
809.51	76.05651
809.698	-20.89695
809.885	-41.96706
810.072	76.05651
810.259	2.283
810.446	33.89672
810.633	86.59788
810.82	-20.89695
811.008	-16.68263
811.195	57.08346
811.382	44.4358
811.569	38.11228
811.756	59.19149
811.943	67.62381
812.13	25.46587
812.317	0.17561
812.504	21.25059
812.691	-4.03909
812.878	-35.64629
813.064	80.27299
813.251	19.14299
813.438	27.57355
813.625	33.89672
813.812	-10.36097
813.999	17.0354
814.186	52.86748
814.372	52.86748
814.559	10.7128
814.746	2.283
814.933	-37.75323
815.12	61.29953
815.306	12.82031
815.493	17.0354
815.68	67.62381
815.866	42.32793
816.053	-20.89695
816.24	-16.68263
816.426	-20.89695
816.613	78.16474
816.799	27.57355
816.986	86.59788
817.173	50.75953
817.359	12.82031
817.546	31.78897
817.732	-25.11117
817.919	12.82031
818.105	50.75953
818.292	-16.68263
818.478	21.25059
818.665	-25.11117
818.851	14.92785
819.037	84.48956
819.224	4.39042
819.41	-25.11117
819.597	-20.89695
819.783	-4.03909
819.969	80.27299
820.156	33.89672
820.342	63.4076
820.528	8.60532
820.714	14.92785
820.901	38.11228
821.087	38.11228
821.273	10.7128
821.459	-31.43231
821.646	-6.14641
821.832	-16.68263
822.018	-41.96706
822.204	25.46587
822.39	50.75953
822.576	44.4358
822.762	17.0354
822.948	4.39042
823.134	-8.2537
823.32	8.60532
823.507	92.92297
823.693	-1.93175
823.879	-4.03909
824.065	-10.36097
824.25	-1.93175
824.436	0.17561
824.622	-1.93175
824.808	27.57355
824.994	-16.68263
825.18	-50.3944
825.366	61.29953
825.552	17.0354
825.738	61.29953
825.923	8.60532
826.109	36.00449
826.295	42.32793
826.481	-25.11117
826.667	29.68125
826.852	-58.82135
827.038	12.82031
827.224	8.60532
827.409	57.08346
827.595	88.70622
827.781	10.7128
827.966	59.19149
828.152	-41.96706
828.338	23.35822
828.523	59.19149
828.709	27.57355
828.894	63.4076
829.08	-27.21824
829.266	-33.53931
829.451	46.54368
829.637	-6.14641
829.822	-20.89695
830.008	-23.00407
830.193	52.86748
830.378	40.22009
830.564	40.22009
830.749	76.05651
830.935	-48.28761
831.12	0.17561
831.305	48.65159
831.491	27.57355
831.676	-4.03909
831.861	27.57355
832.047	21.25059
832.232	17.0354
832.417	46.54368
832.602	-23.00407
832.788	-29.32529
832.973	-46.18078
833.158	52.86748
833.343	-25.11117
833.528	69.73195
833.714	10.7128
833.899	23.35822
834.084	61.29953
834.269	19.14299
834.454	17.0354
834.639	-16.68263
834.824	101.35674
835.009	52.86748
835.194	128.76891
835.379	50.75953
835.564	33.89672
835.749	-44.07393
835.934	-4.03909
836.119	-4.03909
836.304	2.283
836.489	4.39042
836.674	-4.03909
836.859	-31.43231
837.044	-16.68263
837.228	-27.21824
837.413	-48.28761
837.598	54.97546
837.783	-6.14641
837.968	-41.96706
838.152	-16.68263
838.337	0.17561
838.522	-23.00407
838.707	-12.46822
838.891	33.89672
839.076	-6.14641
839.261	31.78897
839.445	-8.2537
839.63	33.89672
839.815	-35.64629
839.999	10.7128
840.184	21.25059
840.368	50.75953
840.553	0.17561
840.737	-16.68263
840.922	61.29953
841.106	54.97546
841.291	-44.07393
841.475	8.60532
841.66	-65.14129
841.844	12.82031
842.029	19.14299
842.213	36.00449
842.397	52.86748
842.582	-4.03909
842.766	33.89672
842.951	59.19149
843.135	40.22009
843.319	0.17561
843.504	-6.14641
843.688	44.4358
843.872	-8.2537
844.056	17.0354
844.241	61.29953
844.425	36.00449
844.609	-25.11117
844.793	-6.14641
844.977	17.0354
845.161	19.14299
845.346	-33.53931
845.53	-14.57544
845.714	-4.03909
845.898	14.92785
846.082	-37.75323
846.266	19.14299
846.45	29.68125
846.634	-14.57544
846.818	-12.46822
847.002	59.19149
847.186	21.25059
847.37	-8.2537
847.554	-33.53931
847.738	-31.43231
847.922	17.0354
848.106	-10.36097
848.29	-8.2537
848.473	42.32793
848.657	25.46587
848.841	42.32793
849.025	105.57375
849.209	19.14299
849.392	14.92785
849.576	69.73195
849.76	-12.46822
849.944	10.7128
850.127	33.89672
850.311	67.62381
850.495	10.7128
850.678	-1.93175
850.862	12.82031
851.046	-23.00407
851.229	59.19149
851.413	59.19149
851.596	0.17561
851.78	44.4358
851.964	10.7128
852.147	38.11228
852.331	23.35822
852.514	69.73195
852.698	71.84011
852.881	84.48956
853.065	-20.89695
853.248	12.82031
853.431	-39.86016
853.615	-31.43231
853.798	8.60532
853.982	-46.18078
854.165	-75.67402
854.348	84.48956
854.532	-10.36097
854.715	76.05651
854.898	2.283
855.081	19.14299
855.265	84.48956
855.448	-23.00407
855.631	0.17561
855.814	-105.16222
855.997	80.27299
856.181	38.11228
856.364	17.0354
856.547	36.00449
856.73	44.4358
856.913	14.92785
857.096	25.46587
857.279	33.89672
857.462	67.62381
857.645	78.16474
857.828	46.54368
858.011	8.60532
858.194	0.17561
858.377	21.25059
858.56	10.7128
858.743	61.29953
858.926	2.283
859.109	-54.60793
859.292	-44.07393
859.475	31.78897
859.658	-20.89695
859.841	2.283
860.023	-18.7898
860.206	-23.00407
860.389	44.4358
860.572	57.08346
860.755	-37.75323
860.937	-71.461
861.12	-90.41875
861.303	-23.00407
861.486	-46.18078
861.668	-14.57544
861.851	27.57355
862.034	40.22009
862.216	-18.7898
862.399	50.75953
862.581	17.0354
862.764	21.25059
862.947	12.82031
863.129	67.62381
863.312	4.39042
863.494	67.62381
863.677	57.08346
863.859	84.48956
864.042	-41.96706
864.224	33.89672
864.406	17.0354
864.589	-41.96706
864.771	78.16474
864.954	52.86748
865.136	-58.82135
865.318	63.4076
865.501	46.54368
865.683	31.78897
865.865	61.29953
866.048	10.7128
866.23	40.22009
866.412	-46.18078
866.594	-58.82135
866.777	21.25059
866.959	-25.11117
867.141	40.22009
867.323	38.11228
867.505	40.22009
867.687	4.39042
867.869	42.32793
868.052	-4.03909
868.234	8.60532
868.416	46.54368
868.598	-31.43231
868.78	42.32793
868.962	54.97546
869.144	-63.03467
869.326	69.73195
869.508	33.89672
869.69	8.60532
869.872	29.68125
870.054	-48.28761
870.236	-52.50118
870.417	-10.36097
870.599	-37.75323
870.781	25.46587
870.963	-27.21824
871.145	-6.14641
871.327	14.92785
871.508	-8.2537
871.69	-33.53931
871.872	67.62381
872.054	-8.2537
872.235	12.82031
872.417	0.17561
872.599	40.22009
872.78	-25.11117
872.962	21.25059
873.144	59.19149
873.325	29.68125
873.507	25.46587
873.689	19.14299
873.87	4.39042
874.052	84.48956
874.233	14.92785
874.415	78.16474
874.596	-6.14641
874.778	52.86748
874.959	-29.32529
875.141	61.29953
875.322	-20.89695
875.503	6.49786
875.685	12.82031
875.866	-14.57544
876.048	-12.46822
876.229	52.86748
876.41	50.75953
876.592	19.14299
876.773	71.84011
876.954	-46.18078
877.136	59.19149
877.317	44.4358
877.498	-41.96706
877.679	63.4076
877.86	17.0354
878.042	-1.93175
878.223	-46.18078
878.404	-52.50118
878.585	-67.24789
878.766	-23.00407
878.947	-46.18078
879.128	33.89672
879.309	-81.99334
879.49	59.19149
879.672	-60.92802
879.853	-60.92802
880.034	80.27299
880.215	25.46587
880.396	44.4358
880.576	-75.67402
880.757	10.7128
880.938	-8.2537
881.119	-31.43231
881.3	27.57355
881.481	31.78897
881.662	6.49786
881.843	-58.82135
882.023	50.75953
882.204	88.70622
882.385	-4.03909
882.566	0.17561
882.747	-4.03909
882.927	-14.57544
883.108	44.4358
883.289	54.97546
883.469	73.9483
883.65	-37.75323
883.831	63.4076
884.011	38.11228
884.192	8.60532
884.373	46.54368
884.553	-33.53931
884.734	21.25059
884.914	44.4358
885.095	29.68125
885.275	-31.43231
885.456	36.00449
885.636	-46.18078
885.817	-8.2537
885.997	17.0354
886.178	14.92785
886.358	38.11228
886.538	8.60532
886.719	44.4358
886.899	27.57355
887.08	38.11228
887.26	-23.00407
887.44	-14.57544
887.621	-37.75323
887.801	42.32793
887.981	-29.32529
888.161	-29.32529
888.342	31.78897
888.522	-39.86016
888.702	-58.82135
888.882	2.283
889.062	-10.36097
889.242	12.82031
889.423	84.48956
889.603	40.22009
889.783	50.75953
889.963	-8.2537
890.143	10.7128
890.323	38.11228
890.503	33.89672
890.683	118.22533
890.863	48.65159
891.043	90.81458
891.223	21.25059
891.403	-41.96706
891.583	57.08346
891.763	50.75953
891.943	4.39042
892.122	14.92785
892.302	92.92297
892.482	-109.3744
892.662	63.4076
892.842	29.68125
893.022	19.14299
893.201	2.283
893.381	-65.14129
893.561	25.46587
893.741	33.89672
893.92	42.32793
894.1	17.0354
894.28	10.7128
894.459	-41.96706
894.639	63.4076
894.819	46.54368
894.998	38.11228
895.178	-14.57544
895.357	63.4076
895.537	80.27299
895.716	-25.11117
895.896	46.54368
896.075	8.60532
896.255	42.32793
896.434	-48.28761
896.614	-6.14641
896.793	31.78897
896.973	-37.75323
897.152	-14.57544
897.331	19.14299
897.511	63.4076
897.69	33.89672
897.87	27.57355
898.049	-16.68263
898.228	-52.50118
898.407	-46.18078
898.587	-33.53931
898.766	71.84011
898.945	-20.89695
899.124	29.68125
899.304	29.68125
899.483	29.68125
899.662	8.60532
899.841	19.14299
900.02	40.22009
900.199	69.73195
900.378	0.17561
900.557	-48.28761
900.737	8.60532
900.916	23.35822
901.095	10.7128
901.274	8.60532
901.453	23.35822
901.632	19.14299
901.811	8.60532
901.989	19.14299
902.168	25.46587
902.347	-29.32529
902.526	8.60532
902.705	33.89672
902.884	2.283
903.063	-8.2537
903.242	61.29953
903.42	-14.57544
903.599	27.57355
903.778	12.82031
903.957	0.17561
904.135	118.22533
904.314	-25.11117
904.493	-37.75323
904.672	-54.60793
904.85	82.38126
905.029	57.08346
905.207	67.62381
905.386	48.65159
905.565	-18.7898
905.743	2.283
905.922	17.0354
906.1	19.14299
906.279	-29.32529
906.457	44.4358
906.636	-6.14641
906.814	25.46587
906.993	23.35822
907.171	12.82031
907.35	67.62381
907.528	-12.46822
907.707	-8.2537
907.885	31.78897
908.063	63.4076
908.242	101.35674
908.42	-18.7898
908.598	-44.07393
908.777	42.32793
908.955	-60.92802
909.133	67.62381
909.311	17.0354
909.49	97.13981
909.668	40.22009
909.846	-10.36097
910.024	50.75953
910.202	-4.03909
910.38	92.92297
910.559	-12.46822
910.737	0.17561
910.915	-10.36097
911.093	40.22009
911.271	33.89672
911.449	12.82031
911.627	-27.21824
911.805	2.283
911.983	4.39042
912.161	19.14299
912.339	17.0354
912.517	29.68125
912.695	42.32793
912.872	-14.57544
913.05	17.0354
913.228	59.19149
913.406	46.54368
913.584	-79.88693
913.762	14.92785
913.939	42.32793
914.117	4.39042
914.295	-27.21824
914.473	-12.46822
914.65	76.05651
914.828	-18.7898
915.006	54.97546
915.184	-16.68263
915.361	6.49786
915.539	-25.11117
915.716	-4.03909
915.894	-12.46822
916.072	63.4076
916.249	17.0354
916.427	-71.461
916.604	-44.07393
916.782	31.78897
916.959	0.17561
917.137	17.0354
917.314	-79.88693
917.492	21.25059
917.669	4.39042
917.847	-14.57544
918.024	12.82031
918.201	33.89672
918.379	8.60532
918.556	25.46587
918.733	8.60532
918.911	44.4358
919.088	61.29953
919.265	40.22009
919.442	-73.56752
919.62	38.11228
919.797	-23.00407
919.974	-8.2537
920.151	-4.03909
920.328	33.89672
920.506	23.35822
920.683	25.46587
920.86	4.39042
921.037	25.46587
921.214	-14.57544
921.391	17.0354
921.568	65.5157
921.745	38.11228
921.922	-29.32529
922.099	-23.00407
922.276	17.0354
922.453	27.57355
922.63	-29.32529
922.807	8.60532
922.984	-8.2537
923.161	-52.50118
923.338	-20.89695
923.514	12.82031
923.691	92.92297
923.868	-39.86016
924.045	-46.18078
924.222	50.75953
924.399	-25.11117
924.575	-8.2537
924.752	-50.3944
924.929	21.25059
925.105	19.14299
925.282	42.32793
925.459	21.25059
925.635	21.25059
925.812	67.62381
925.989	33.89672
926.165	57.08346
926.342	-41.96706
926.518	-25.11117
926.695	10.7128
926.871	21.25059
927.048	46.54368
927.224	29.68125
927.401	12.82031
927.577	-90.41875
927.754	29.68125
927.93	-25.11117
928.107	12.82031
928.283	23.35822
928.459	8.60532
928.636	-4.03909
928.812	-18.7898
928.988	-12.46822
929.165	23.35822
929.341	33.89672
929.517	-12.46822
929.693	-37.75323
929.87	8.60532
930.046	0.17561
930.222	38.11228
930.398	-8.2537
930.574	61.29953
930.751	10.7128
930.927	19.14299
931.103	31.78897
931.279	40.22009
931.455	-16.68263
931.631	19.14299
931.807	92.92297
931.983	8.60532
932.159	-20.89695
932.335	6.49786
932.511	33.89672
932.687	8.60532
932.863	17.0354
933.039	50.75953
933.215	67.62381
933.391	-8.2537
933.566	-12.46822
933.742	42.32793
933.918	-10.36097
934.094	29.68125
934.27	-20.89695
934.445	17.0354
934.621	-25.11117
934.797	-6.14641
934.973	14.92785
935.148	-33.53931
935.324	-12.46822
935.5	63.4076
935.675	-12.46822
935.851	36.00449
936.027	-25.11117
936.202	4.39042
936.378	-67.24789
936.553	12.82031
936.729	0.17561
936.904	-12.46822
937.08	-50.3944
937.255	29.68125
937.431	17.0354
937.606	54.97546
937.782	0.17561
937.957	71.84011
938.133	-71.461
938.308	42.32793
938.483	14.92785
938.659	27.57355
938.834	59.19149
939.009	67.62381
939.185	21.25059
939.36	25.46587
939.535	31.78897
939.71	-16.68263
939.886	8.60532
940.061	50.75953
940.236	-8.2537
940.411	-41.96706
940.586	-10.36097
940.761	-50.3944
940.937	17.0354
941.112	8.60532
941.287	-6.14641
941.462	12.82031
941.637	-33.53931
941.812	-33.53931
941.987	-63.03467
942.162	14.92785
942.337	38.11228
942.512	109.79086
942.687	-39.86016
942.862	46.54368
943.037	-16.68263
943.212	103.46523
943.386	25.46587
943.561	19.14299
943.736	-6.14641
943.911	31.78897
944.086	-14.57544
944.26	-14.57544
944.435	54.97546
944.61	-8.2537
944.785	-6.14641
944.959	-18.7898
945.134	-81.99334
945.309	25.46587
945.483	-115.69247
945.658	-37.75323
945.833	33.89672
946.007	59.19149
946.182	12.82031
946.357	33.89672
946.531	4.39042
946.706	-1.93175
946.88	-6.14641
947.055	0.17561
947.229	-67.24789
947.404	-8.2537
947.578	21.25059
947.752	-33.53931
947.927	-20.89695
948.101	-41.96706
948.276	21.25059
948.45	-20.89695
948.624	-23.00407
948.799	65.5157
948.973	-8.2537
949.147	-52.50118
949.321	-16.68263
949.496	-20.89695
949.67	25.46587
949.844	-31.43231
950.018	46.54368
950.193	52.86748
950.367	-23.00407
950.541	54.97546
950.715	38.11228
950.889	8.60532
951.063	50.75953
951.237	33.89672
951.411	-39.86016
951.585	19.14299
951.759	-35.64629
951.933	10.7128
952.107	27.57355
952.281	-46.18078
952.455	27.57355
952.629	-39.86016
952.803	-20.89695
952.977	-23.00407
953.151	84.48956
953.325	78.16474
953.499	-16.68263
953.672	2.283
953.846	4.39042
954.02	-20.89695
954.194	-67.24789
954.368	50.75953
954.541	-39.86016
954.715	46.54368
954.889	-33.53931
955.062	-4.03909
955.236	-37.75323
955.41	-33.53931
955.583	17.0354
955.757	-41.96706
955.93	33.89672
956.104	17.0354
956.278	-6.14641
956.451	95.03138
956.625	23.35822
956.798	25.46587
956.972	67.62381
957.145	67.62381
957.319	33.89672
957.492	4.39042
957.665	0.17561
957.839	29.68125
958.012	54.97546
958.185	99.24826
958.359	-20.89695
958.532	31.78897
958.705	46.54368
958.879	-16.68263
959.052	54.97546
959.225	-12.46822
959.398	21.25059
959.572	17.0354
959.745	6.49786
959.918	76.05651
960.091	-27.21824
960.264	54.97546
960.438	-44.07393
960.611	4.39042
960.784	-14.57544
960.957	8.60532
961.13	-16.68263
961.303	25.46587
961.476	-1.93175
961.649	78.16474
961.822	33.89672
961.995	-10.36097
962.168	27.57355
962.341	-18.7898
962.514	44.4358
962.686	-16.68263
962.859	-18.7898
963.032	12.82031
963.205	-8.2537
963.378	-46.18078
963.551	21.25059
963.723	-16.68263
963.896	8.60532
964.069	44.4358
964.242	50.75953
964.414	21.25059
964.587	54.97546
964.76	-8.2537
964.932	-25.11117
965.105	33.89672
965.278	19.14299
965.45	29.68125
965.623	-12.46822
965.795	-54.60793
965.968	27.57355
966.14	59.19149
966.313	40.22009
966.485	82.38126
966.658	78.16474
966.83	54.97546
967.003	-12.46822
967.175	-16.68263
967.348	-60.92802
967.52	38.11228
967.692	50.75953
967.865	38.11228
968.037	52.86748
968.209	42.32793
968.382	38.11228
968.554	-6.14641
968.726	-60.92802
968.898	92.92297
969.071	-4.03909
969.243	0.17561
969.415	-12.46822
969.587	23.35822
969.759	-54.60793
969.932	33.89672
970.104	71.84011
970.276	19.14299
970.448	-20.89695
970.62	52.86748
970.792	8.60532
970.964	8.60532
971.136	0.17561
971.308	-25.11117
971.48	-23.00407
971.652	59.19149
971.824	-50.3944
971.996	14.92785
972.168	44.4358
972.339	-33.53931
972.511	50.75953
972.683	-27.21824
972.855	40.22009
973.027	27.57355
973.199	31.78897
973.37	44.4358
973.542	50.75953
973.714	65.5157
973.886	4.39042
974.057	-31.43231
974.229	10.7128
974.401	-8.2537
974.572	0.17561
974.744	31.78897
974.915	14.92785
975.087	109.79086
975.259	38.11228
975.43	36.00449
975.602	71.84011
975.773	42.32793
975.945	36.00449
976.116	2.283
976.288	-67.24789
976.459	25.46587
976.63	-1.93175
976.802	44.4358
976.973	101.35674
977.145	0.17561
977.316	-39.86016
977.487	-8.2537
977.659	23.35822
977.83	33.89672
978.001	59.19149
978.172	-10.36097
978.344	38.11228
978.515	-41.96706
978.686	-90.41875
978.857	-44.07393
979.028	63.4076
979.2	-25.11117
979.371	8.60532
979.542	25.46587
979.713	4.39042
979.884	14.92785
980.055	38.11228
980.226	33.89672
980.397	-71.461
980.568	44.4358
980.739	17.0354
980.91	-33.53931
981.081	65.5157
981.252	67.62381
981.423	-12.46822
981.594	40.22009
981.765	-18.7898
981.936	46.54368
982.106	88.70622
982.277	-4.03909
982.448	0.17561
982.619	8.60532
982.79	0.17561
982.96	19.14299
983.131	-20.89695
983.302	-16.68263
983.472	-16.68263
983.643	33.89672
983.814	-50.3944
983.984	48.65159
984.155	57.08346
984.326	-16.68263
984.496	17.0354
984.667	8.60532
984.837	61.29953
985.008	25.46587
985.178	-29.32529
985.349	120.334
985.519	0.17561
985.69	27.57355
985.86	69.73195
986.031	42.32793
986.201	19.14299
986.371	-27.21824
986.542	67.62381
986.712	-48.28761
986.882	-4.03909
987.053	38.11228
987.223	-6.14641
987.393	27.57355
987.563	-4.03909
987.734	8.60532
987.904	19.14299
988.074	-41.96706
988.244	38.11228
988.414	101.35674
988.585	-12.46822
988.755	14.92785
988.925	-75.67402
989.095	25.46587
989.265	2.283
989.435	50.75953
989.605	8.60532
989.775	78.16474
989.945	-27.21824
990.115	25.46587
990.285	4.39042
990.455	61.29953
990.625	17.0354
990.795	0.17561
990.965	-10.36097
991.134	14.92785
991.304	19.14299
991.474	0.17561
991.644	29.68125
991.814	76.05651
991.984	36.00449
992.153	105.57375
992.323	2.283
992.493	33.89672
992.662	-10.36097
992.832	78.16474
993.002	-6.14641
993.171	73.9483
993.341	82.38126
993.511	-25.11117
993.68	19.14299
993.85	14.92785
994.019	27.57355
994.189	25.46587
994.358	17.0354
994.528	0.17561
994.697	-8.2537
994.867	59.19149
995.036	0.17561
995.206	-33.53931
995.375	-12.46822
995.544	19.14299
995.714	33.89672
995.883	-12.46822
996.052	19.14299
996.222	27.57355
996.391	33.89672
996.56	-10.36097
996.73	38.11228
996.899	61.29953
997.068	78.16474
997.237	-14.57544
997.406	42.32793
997.576	-4.03909
997.745	2.283
997.914	38.11228
998.083	86.59788
998.252	-4.03909
998.421	42.32793
998.59	31.78897
998.759	14.92785
998.928	84.48956
999.097	82.38126
999.266	17.0354
999.435	25.46587
999.604	54.97546
999.773	-69.35446
999.942	25.46587
1000.111	-48.28761
1000.28	50.75953
1000.448	-4.03909
1000.617	31.78897
1000.786	27.57355
1000.955	-4.03909
1001.124	17.0354
1001.292	-16.68263
1001.461	8.60532
1001.63	14.92785
1001.798	-73.56752
1001.967	48.65159
1002.136	-4.03909
1002.304	54.97546
1002.473	0.17561
1002.642	-10.36097
1002.81	52.86748
1002.979	46.54368
1003.147	63.4076
1003.316	46.54368
1003.484	2.283
1003.653	-14.57544
1003.821	-16.68263
1003.99	44.4358
1004.158	33.89672
1004.327	76.05651
1004.495	-33.53931
1004.663	-37.75323
1004.832	4.39042
1005	33.89672
1005.168	27.57355
1005.337	-16.68263
1005.505	67.62381
1005.673	27.57355
1005.842	-52.50118
1006.01	-56.71465
1006.178	-39.86016
1006.346	-10.36097
1006.514	50.75953
1006.683	29.68125
1006.851	67.62381
1007.019	14.92785
1007.187	33.89672
1007.355	-16.68263
1007.523	76.05651
1007.691	-39.86016
1007.859	114.00805
1008.027	12.82031
1008.195	-50.3944
1008.363	-23.00407
1008.531	17.0354
1008.699	31.78897
1008.867	-25.11117
1009.035	-23.00407
1009.203	10.7128
1009.37	61.29953
1009.538	19.14299
1009.706	44.4358
1009.874	21.25059
1010.042	46.54368
1010.209	-41.96706
1010.377	54.97546
1010.545	8.60532
1010.713	17.0354
1010.88	63.4076
1011.048	-14.57544
1011.216	57.08346
1011.383	50.75953
1011.551	-18.7898
1011.718	59.19149
1011.886	-18.7898
1012.054	-75.67402
1012.221	80.27299
1012.389	118.22533
1012.556	-25.11117
1012.724	33.89672
1012.891	67.62381
1013.058	50.75953
1013.226	-67.24789
1013.393	-8.2537
1013.561	101.35674
1013.728	57.08346
1013.895	21.25059
1014.063	19.14299
1014.23	33.89672
1014.397	71.84011
1014.565	25.46587
1014.732	0.17561
1014.899	10.7128
1015.066	-4.03909
1015.233	25.46587
1015.401	52.86748
1015.568	46.54368
1015.735	97.13981
1015.902	-14.57544
1016.069	-14.57544
1016.236	36.00449
1016.403	25.46587
1016.57	21.25059
1016.737	0.17561
1016.904	-4.03909
1017.071	4.39042
1017.238	40.22009
1017.405	6.49786
1017.572	25.46587
1017.739	-71.461
1017.906	42.32793
1018.073	27.57355
1018.24	-18.7898
1018.407	-67.24789
1018.573	-33.53931
1018.74	-41.96706
1018.907	21.25059
1019.074	33.89672
1019.241	0.17561
1019.407	12.82031
1019.574	6.49786
1019.741	33.89672
1019.907	-29.32529
1020.074	-12.46822
1020.241	-14.57544
1020.407	19.14299
1020.574	38.11228
1020.74	-10.36097
1020.907	44.4358
1021.073	-23.00407
1021.24	17.0354
1021.406	59.19149
1021.573	14.92785
1021.739	48.65159
1021.906	31.78897
1022.072	29.68125
1022.239	4.39042
1022.405	0.17561
1022.571	-37.75323
1022.738	-33.53931
1022.904	12.82031
1023.07	48.65159
1023.237	4.39042
1023.403	44.4358
1023.569	42.32793
1023.735	12.82031
1023.902	19.14299
1024.068	63.4076
1024.234	40.22009
1024.4	-14.57544
1024.566	59.19149
1024.732	33.89672
1024.898	-50.3944
1025.065	-50.3944
1025.231	-23.00407
1025.397	78.16474
1025.563	50.75953
1025.729	-75.67402
1025.895	29.68125
1026.061	21.25059
1026.227	29.68125
1026.392	2.283
1026.558	88.70622
1026.724	33.89672
1026.89	17.0354
1027.056	-20.89695
1027.222	-27.21824
1027.388	-75.67402
1027.553	-56.71465
1027.719	50.75953
1027.885	-54.60793
1028.051	29.68125
1028.216	8.60532
1028.382	-65.14129
1028.548	54.97546
1028.713	-8.2537
1028.879	69.73195
1029.045	-6.14641
1029.21	71.84011
1029.376	-16.68263
1029.541	12.82031
1029.707	25.46587
1029.873	-75.67402
1030.038	-6.14641
1030.204	0.17561
1030.369	12.82031
1030.534	-8.2537
1030.7	0.17561
1030.865	63.4076
1031.031	54.97546
1031.196	71.84011
1031.361	-27.21824
1031.527	2.283
1031.692	33.89672
1031.857	4.39042
1032.023	12.82031
1032.188	-27.21824
1032.353	-79.88693
1032.518	46.54368
1032.684	92.92297
1032.849	59.19149
1033.014	42.32793
1033.179	-33.53931
1033.344	-8.2537
1033.509	-39.86016
1033.674	-12.46822
1033.839	4.39042
1034.004	10.7128
1034.17	17.0354
1034.335	67.62381
1034.5	17.0354
1034.664	25.46587
1034.829	63.4076
1034.994	52.86748
1035.159	25.46587
1035.324	19.14299
1035.489	8.60532
1035.654	25.46587
1035.819	0.17561
1035.984	25.46587
1036.148	118.22533
1036.313	-18.7898
1036.478	-33.53931
1036.643	50.75953
1036.807	31.78897
1036.972	48.65159
1037.137	-6.14641
1037.301	8.60532
1037.466	10.7128
1037.631	0.17561
1037.795	38.11228
1037.96	23.35822
1038.124	50.75953
1038.289	-33.53931
1038.454	-33.53931
1038.618	38.11228
1038.783	0.17561
1038.947	-6.14641
1039.111	38.11228
1039.276	-25.11117
1039.44	-4.03909
1039.605	21.25059
1039.769	59.19149
1039.933	-10.36097
1040.098	63.4076
1040.262	114.00805
1040.426	-67.24789
1040.591	137.20416
1040.755	23.35822
1040.919	8.60532
1041.083	0.17561
1041.248	-12.46822
1041.412	36.00449
1041.576	50.75953
1041.74	71.84011
1041.904	59.19149
1042.068	-20.89695
1042.232	-8.2537
1042.397	40.22009
1042.561	-1.93175
1042.725	-20.89695
1042.889	-31.43231
1043.053	36.00449
1043.217	92.92297
1043.381	-1.93175
1043.544	80.27299
1043.708	4.39042
1043.872	42.32793
1044.036	50.75953
1044.2	33.89672
1044.364	25.46587
1044.528	88.70622
1044.691	-8.2537
1044.855	10.7128
1045.019	67.62381
1045.183	76.05651
1045.346	10.7128
1045.51	42.32793
1045.674	-54.60793
1045.837	-4.03909
1046.001	2.283
1046.165	50.75953
1046.328	71.84011
1046.492	19.14299
1046.655	80.27299
1046.819	-14.57544
1046.983	54.97546
1047.146	50.75953
1047.31	-16.68263
1047.473	-6.14641
1047.636	0.17561
1047.8	29.68125
1047.963	61.29953
1048.127	-27.21824
1048.29	12.82031
