Data from Scatter_Coeff_Baseline_USB4F045381__27__0027.txt Node

Date: Thu Feb 13 19:21:44 EST 2025
User: mmckonesweet
Spectrometer: USB4F04538
Trigger mode: 4
Integration Time (sec): 2.400000E-3
Scans to average: 1
Electric dark correction enabled: true
Nonlinearity correction enabled: true
Boxcar width: 0
XAxis mode: Wavelengths
Number of Pixels in Spectrum: 3648
>>>>>Begin Spectral Data<<<<<
345.52	33.89672
345.736	33.89672
345.952	33.89672
346.168	0.17561
346.384	-25.11117
346.6	38.11228
346.816	14.92785
347.032	-29.32529
347.248	4.39042
347.464	-35.64629
347.68	4.39042
347.896	-31.43231
348.112	-1.93175
348.328	23.35822
348.544	-37.75323
348.76	-12.46822
348.975	63.4076
349.191	6.49786
349.407	73.9483
349.623	-20.89695
349.839	40.22009
350.055	31.78897
350.27	105.57375
350.486	25.46587
350.702	12.82031
350.918	-54.60793
351.133	-16.68263
351.349	88.70622
351.565	-27.21824
351.781	78.16474
351.996	86.59788
352.212	38.11228
352.428	76.05651
352.644	65.5157
352.859	-27.21824
353.075	-12.46822
353.291	-4.03909
353.506	25.46587
353.722	-60.92802
353.938	19.14299
354.153	-12.46822
354.369	31.78897
354.584	27.57355
354.8	73.9483
355.016	0.17561
355.231	38.11228
355.447	0.17561
355.662	-16.68263
355.878	50.75953
356.093	54.97546
356.309	-33.53931
356.524	38.11228
356.74	27.57355
356.955	40.22009
357.171	84.48956
357.386	50.75953
357.602	21.25059
357.817	50.75953
358.033	-96.73754
358.248	33.89672
358.464	36.00449
358.679	17.0354
358.895	29.68125
359.11	21.25059
359.325	46.54368
359.541	-4.03909
359.756	-58.82135
359.972	-6.14641
360.187	6.49786
360.402	-6.14641
360.618	42.32793
360.833	-12.46822
361.048	-37.75323
361.264	59.19149
361.479	40.22009
361.694	31.78897
361.909	-44.07393
362.125	27.57355
362.34	12.82031
362.555	71.84011
362.77	33.89672
362.986	65.5157
363.201	67.62381
363.416	-73.56752
363.631	-46.18078
363.847	67.62381
364.062	10.7128
364.277	-6.14641
364.492	80.27299
364.707	-33.53931
364.922	-16.68263
365.138	-27.21824
365.353	0.17561
365.568	57.08346
365.783	54.97546
365.998	36.00449
366.213	-1.93175
366.428	25.46587
366.643	-12.46822
366.858	-14.57544
367.073	-44.07393
367.288	-12.46822
367.503	-111.48045
367.718	12.82031
367.933	46.54368
368.148	0.17561
368.363	46.54368
368.578	-25.11117
368.793	-39.86016
369.008	-16.68263
369.223	44.4358
369.438	-16.68263
369.653	33.89672
369.868	-60.92802
370.083	-1.93175
370.298	38.11228
370.513	63.4076
370.728	10.7128
370.943	2.283
371.157	50.75953
371.372	31.78897
371.587	23.35822
371.802	-29.32529
372.017	95.03138
372.232	-20.89695
372.446	50.75953
372.661	25.46587
372.876	12.82031
373.091	63.4076
373.306	8.60532
373.52	19.14299
373.735	38.11228
373.95	21.25059
374.165	63.4076
374.379	0.17561
374.594	-37.75323
374.809	12.82031
375.023	-79.88693
375.238	109.79086
375.453	-25.11117
375.667	17.0354
375.882	40.22009
376.097	33.89672
376.311	19.14299
376.526	-16.68263
376.741	12.82031
376.955	-25.11117
377.17	27.57355
377.384	31.78897
377.599	63.4076
377.813	63.4076
378.028	17.0354
378.242	21.25059
378.457	-10.36097
378.672	76.05651
378.886	-10.36097
379.101	71.84011
379.315	33.89672
379.53	40.22009
379.744	59.19149
379.958	63.4076
380.173	48.65159
380.387	-35.64629
380.602	6.49786
380.816	92.92297
381.031	0.17561
381.245	50.75953
381.459	-48.28761
381.674	-4.03909
381.888	-52.50118
382.103	44.4358
382.317	-41.96706
382.531	48.65159
382.746	-10.36097
382.96	-8.2537
383.174	95.03138
383.388	23.35822
383.603	67.62381
383.817	73.9483
384.031	-12.46822
384.246	105.57375
384.46	-41.96706
384.674	21.25059
384.888	-25.11117
385.103	-33.53931
385.317	29.68125
385.531	-23.00407
385.745	-67.24789
385.959	-1.93175
386.174	-4.03909
386.388	42.32793
386.602	-50.3944
386.816	17.0354
387.03	-69.35446
387.244	-1.93175
387.458	46.54368
387.672	73.9483
387.887	38.11228
388.101	21.25059
388.315	-67.24789
388.529	4.39042
388.743	-8.2537
388.957	14.92785
389.171	59.19149
389.385	-52.50118
389.599	52.86748
389.813	21.25059
390.027	33.89672
390.241	29.68125
390.455	29.68125
390.669	-18.7898
390.883	48.65159
391.097	10.7128
391.311	-27.21824
391.525	76.05651
391.738	-35.64629
391.952	23.35822
392.166	-16.68263
392.38	38.11228
392.594	14.92785
392.808	-20.89695
393.022	-4.03909
393.236	25.46587
393.449	12.82031
393.663	10.7128
393.877	65.5157
394.091	4.39042
394.305	-12.46822
394.518	50.75953
394.732	88.70622
394.946	46.54368
395.16	29.68125
395.373	-50.3944
395.587	-6.14641
395.801	-25.11117
396.015	-39.86016
396.228	25.46587
396.442	-71.461
396.656	17.0354
396.869	-41.96706
397.083	48.65159
397.297	57.08346
397.51	29.68125
397.724	0.17561
397.938	14.92785
398.151	-31.43231
398.365	71.84011
398.578	10.7128
398.792	8.60532
399.005	-8.2537
399.219	-31.43231
399.433	2.283
399.646	31.78897
399.86	-46.18078
400.073	2.283
400.287	-16.68263
400.5	-8.2537
400.714	99.24826
400.927	76.05651
401.141	63.4076
401.354	-8.2537
401.567	-41.96706
401.781	29.68125
401.994	-31.43231
402.208	21.25059
402.421	-12.46822
402.635	-4.03909
402.848	0.17561
403.061	29.68125
403.275	-54.60793
403.488	88.70622
403.701	-122.01031
403.915	14.92785
404.128	6.49786
404.341	97.13981
404.555	12.82031
404.768	57.08346
404.981	8.60532
405.195	8.60532
405.408	-46.18078
405.621	-18.7898
405.834	-31.43231
406.048	40.22009
406.261	21.25059
406.474	-14.57544
406.687	65.5157
406.9	-96.73754
407.114	21.25059
407.327	29.68125
407.54	10.7128
407.753	-1.93175
407.966	-67.24789
408.179	38.11228
408.392	-16.68263
408.605	54.97546
408.819	-18.7898
409.032	33.89672
409.245	48.65159
409.458	109.79086
409.671	73.9483
409.884	29.68125
410.097	-16.68263
410.31	14.92785
410.523	36.00449
410.736	0.17561
410.949	23.35822
411.162	57.08346
411.375	48.65159
411.588	78.16474
411.801	48.65159
412.014	-37.75323
412.227	-29.32529
412.44	14.92785
412.653	8.60532
412.865	38.11228
413.078	-8.2537
413.291	31.78897
413.504	17.0354
413.717	-20.89695
413.93	8.60532
414.143	10.7128
414.356	-20.89695
414.568	23.35822
414.781	4.39042
414.994	2.283
415.207	46.54368
415.42	29.68125
415.632	-8.2537
415.845	105.57375
416.058	8.60532
416.271	25.46587
416.483	-60.92802
416.696	54.97546
416.909	-33.53931
417.121	59.19149
417.334	78.16474
417.547	54.97546
417.759	80.27299
417.972	-16.68263
418.185	-12.46822
418.397	-33.53931
418.61	-67.24789
418.823	33.89672
419.035	14.92785
419.248	57.08346
419.46	-12.46822
419.673	-8.2537
419.885	-33.53931
420.098	38.11228
420.311	2.283
420.523	67.62381
420.736	8.60532
420.948	2.283
421.161	-25.11117
421.373	29.68125
421.586	-12.46822
421.798	-14.57544
422.01	4.39042
422.223	67.62381
422.435	0.17561
422.648	57.08346
422.86	111.89944
423.073	59.19149
423.285	46.54368
423.497	-8.2537
423.71	65.5157
423.922	82.38126
424.134	17.0354
424.347	33.89672
424.559	14.92785
424.771	4.39042
424.984	78.16474
425.196	-4.03909
425.408	63.4076
425.621	-1.93175
425.833	63.4076
426.045	25.46587
426.257	14.92785
426.47	8.60532
426.682	21.25059
426.894	17.0354
427.106	92.92297
427.318	-8.2537
427.531	57.08346
427.743	12.82031
427.955	-37.75323
428.167	80.27299
428.379	27.57355
428.591	42.32793
428.804	2.283
429.016	29.68125
429.228	-16.68263
429.44	-12.46822
429.652	-6.14641
429.864	97.13981
430.076	38.11228
430.288	48.65159
430.5	65.5157
430.712	2.283
430.924	0.17561
431.136	50.75953
431.348	25.46587
431.56	36.00449
431.772	-56.71465
431.984	-16.68263
432.196	-12.46822
432.408	14.92785
432.62	40.22009
432.832	-35.64629
433.044	38.11228
433.256	-10.36097
433.468	76.05651
433.679	25.46587
433.891	-4.03909
434.103	17.0354
434.315	14.92785
434.527	-6.14641
434.739	33.89672
434.95	38.11228
435.162	12.82031
435.374	-10.36097
435.586	31.78897
435.798	-20.89695
436.009	46.54368
436.221	52.86748
436.433	14.92785
436.645	80.27299
436.856	31.78897
437.068	54.97546
437.28	46.54368
437.491	2.283
437.703	14.92785
437.915	42.32793
438.126	0.17561
438.338	17.0354
438.55	19.14299
438.761	59.19149
438.973	95.03138
439.184	-54.60793
439.396	0.17561
439.608	50.75953
439.819	-27.21824
440.031	23.35822
440.242	29.68125
440.454	36.00449
440.665	14.92785
440.877	-8.2537
441.088	29.68125
441.3	54.97546
441.511	-4.03909
441.723	17.0354
441.934	-52.50118
442.146	14.92785
442.357	36.00449
442.569	29.68125
442.78	-25.11117
442.991	-4.03909
443.203	54.97546
443.414	44.4358
443.626	21.25059
443.837	156.18471
444.048	40.22009
444.26	14.92785
444.471	-10.36097
444.682	52.86748
444.894	61.29953
445.105	-6.14641
445.316	8.60532
445.528	48.65159
445.739	4.39042
445.95	-18.7898
446.161	-6.14641
446.373	38.11228
446.584	-14.57544
446.795	-16.68263
447.006	-16.68263
447.217	19.14299
447.429	46.54368
447.64	14.92785
447.851	-10.36097
448.062	17.0354
448.273	21.25059
448.484	-8.2537
448.695	-1.93175
448.907	0.17561
449.118	31.78897
449.329	31.78897
449.54	25.46587
449.751	-20.89695
449.962	8.60532
450.173	97.13981
450.384	-10.36097
450.595	6.49786
450.806	2.283
451.017	-71.461
451.228	76.05651
451.439	23.35822
451.65	23.35822
451.861	4.39042
452.072	48.65159
452.283	90.81458
452.494	-4.03909
452.705	59.19149
452.915	29.68125
453.126	80.27299
453.337	-46.18078
453.548	-46.18078
453.759	-23.00407
453.97	25.46587
454.181	12.82031
454.391	-8.2537
454.602	-10.36097
454.813	38.11228
455.024	-27.21824
455.235	12.82031
455.445	27.57355
455.656	25.46587
455.867	48.65159
456.078	12.82031
456.288	0.17561
456.499	25.46587
456.71	17.0354
456.921	76.05651
457.131	-63.03467
457.342	-27.21824
457.553	-8.2537
457.763	-8.2537
457.974	-1.93175
458.184	-29.32529
458.395	65.5157
458.606	-52.50118
458.816	33.89672
459.027	54.97546
459.237	-4.03909
459.448	-29.32529
459.659	-79.88693
459.869	8.60532
460.08	29.68125
460.29	33.89672
460.501	21.25059
460.711	52.86748
460.922	-8.2537
461.132	14.92785
461.343	40.22009
461.553	-18.7898
461.764	17.0354
461.974	-12.46822
462.184	6.49786
462.395	10.7128
462.605	67.62381
462.816	12.82031
463.026	46.54368
463.236	14.92785
463.447	17.0354
463.657	-25.11117
463.867	50.75953
464.078	-12.46822
464.288	-39.86016
464.498	-35.64629
464.709	25.46587
464.919	40.22009
465.129	-14.57544
465.339	67.62381
465.55	21.25059
465.76	-37.75323
465.97	-39.86016
466.18	-29.32529
466.391	31.78897
466.601	84.48956
466.811	4.39042
467.021	31.78897
467.231	-10.36097
467.441	14.92785
467.651	-33.53931
467.862	-23.00407
468.072	29.68125
468.282	27.57355
468.492	12.82031
468.702	31.78897
468.912	17.0354
469.122	-4.03909
469.332	14.92785
469.542	-25.11117
469.752	-20.89695
469.962	103.46523
470.172	59.19149
470.382	-20.89695
470.592	21.25059
470.802	63.4076
471.012	54.97546
471.222	46.54368
471.432	12.82031
471.642	38.11228
471.852	-33.53931
472.062	33.89672
472.272	4.39042
472.482	-20.89695
472.691	-10.36097
472.901	67.62381
473.111	8.60532
473.321	12.82031
473.531	-52.50118
473.741	-14.57544
473.95	-33.53931
474.16	4.39042
474.37	67.62381
474.58	23.35822
474.79	46.54368
474.999	-37.75323
475.209	25.46587
475.419	27.57355
475.628	-60.92802
475.838	57.08346
476.048	97.13981
476.258	29.68125
476.467	21.25059
476.677	63.4076
476.886	40.22009
477.096	101.35674
477.306	-73.56752
477.515	65.5157
477.725	-1.93175
477.935	-12.46822
478.144	63.4076
478.354	12.82031
478.563	-37.75323
478.773	12.82031
478.982	-10.36097
479.192	27.57355
479.401	8.60532
479.611	10.7128
479.82	19.14299
480.03	44.4358
480.239	38.11228
480.449	67.62381
480.658	12.82031
480.868	17.0354
481.077	61.29953
481.287	-1.93175
481.496	-71.461
481.705	97.13981
481.915	88.70622
482.124	54.97546
482.333	73.9483
482.543	59.19149
482.752	-4.03909
482.961	12.82031
483.171	12.82031
483.38	12.82031
483.589	14.92785
483.799	42.32793
484.008	-52.50118
484.217	6.49786
484.426	82.38126
484.636	42.32793
484.845	-20.89695
485.054	46.54368
485.263	76.05651
485.472	6.49786
485.682	67.62381
485.891	54.97546
486.1	-25.11117
486.309	57.08346
486.518	25.46587
486.727	21.25059
486.936	-1.93175
487.146	-18.7898
487.355	21.25059
487.564	4.39042
487.773	-8.2537
487.982	46.54368
488.191	-12.46822
488.4	4.39042
488.609	31.78897
488.818	29.68125
489.027	42.32793
489.236	-41.96706
489.445	12.82031
489.654	10.7128
489.863	8.60532
490.072	-1.93175
490.281	46.54368
490.49	12.82031
490.698	-50.3944
490.907	4.39042
491.116	69.73195
491.325	29.68125
491.534	-23.00407
491.743	-4.03909
491.952	54.97546
492.16	-6.14641
492.369	-20.89695
492.578	54.97546
492.787	-25.11117
492.996	-4.03909
493.204	12.82031
493.413	40.22009
493.622	6.49786
493.831	69.73195
494.039	33.89672
494.248	-4.03909
494.457	-44.07393
494.665	8.60532
494.874	97.13981
495.083	6.49786
495.291	2.283
495.5	8.60532
495.709	54.97546
495.917	67.62381
496.126	-4.03909
496.335	48.65159
496.543	46.54368
496.752	-18.7898
496.96	29.68125
497.169	69.73195
497.377	-20.89695
497.586	-58.82135
497.794	12.82031
498.003	-35.64629
498.211	92.92297
498.42	25.46587
498.628	-1.93175
498.837	-25.11117
499.045	61.29953
499.254	-29.32529
499.462	23.35822
499.671	17.0354
499.879	-10.36097
500.087	82.38126
500.296	14.92785
500.504	12.82031
500.713	40.22009
500.921	-1.93175
501.129	4.39042
501.338	17.0354
501.546	14.92785
501.754	-44.07393
501.962	19.14299
502.171	46.54368
502.379	-1.93175
502.587	23.35822
502.795	29.68125
503.004	80.27299
503.212	44.4358
503.42	46.54368
503.628	12.82031
503.837	14.92785
504.045	90.81458
504.253	-20.89695
504.461	63.4076
504.669	63.4076
504.877	-18.7898
505.085	6.49786
505.294	10.7128
505.502	21.25059
505.71	19.14299
505.918	116.11668
506.126	19.14299
506.334	46.54368
506.542	50.75953
506.75	4.39042
506.958	4.39042
507.166	8.60532
507.374	0.17561
507.582	44.4358
507.79	40.22009
507.998	69.73195
508.206	-27.21824
508.414	-14.57544
508.622	29.68125
508.83	63.4076
509.037	48.65159
509.245	-12.46822
509.453	23.35822
509.661	31.78897
509.869	71.84011
510.077	-31.43231
510.285	21.25059
510.492	59.19149
510.7	23.35822
510.908	63.4076
511.116	92.92297
511.324	-6.14641
511.531	46.54368
511.739	29.68125
511.947	29.68125
512.155	141.42191
512.362	19.14299
512.57	126.66015
512.778	-50.3944
512.985	14.92785
513.193	46.54368
513.401	33.89672
513.608	-6.14641
513.816	40.22009
514.024	29.68125
514.231	38.11228
514.439	14.92785
514.646	67.62381
514.854	36.00449
515.061	-35.64629
515.269	23.35822
515.477	92.92297
515.684	19.14299
515.892	59.19149
516.099	-16.68263
516.307	48.65159
516.514	-16.68263
516.722	92.92297
516.929	-23.00407
517.136	17.0354
517.344	21.25059
517.551	-12.46822
517.759	36.00449
517.966	88.70622
518.173	116.11668
518.381	-23.00407
518.588	33.89672
518.796	23.35822
519.003	-6.14641
519.21	21.25059
519.418	0.17561
519.625	31.78897
519.832	90.81458
520.039	59.19149
520.247	-33.53931
520.454	17.0354
520.661	40.22009
520.868	4.39042
521.076	46.54368
521.283	-18.7898
521.49	-29.32529
521.697	59.19149
521.904	109.79086
522.112	52.86748
522.319	-27.21824
522.526	36.00449
522.733	-25.11117
522.94	8.60532
523.147	38.11228
523.354	-8.2537
523.561	63.4076
523.768	14.92785
523.975	2.283
524.183	-31.43231
524.39	33.89672
524.597	63.4076
524.804	27.57355
525.011	6.49786
525.218	-31.43231
525.425	31.78897
525.632	0.17561
525.838	29.68125
526.045	-4.03909
526.252	101.35674
526.459	36.00449
526.666	29.68125
526.873	46.54368
527.08	-4.03909
527.287	10.7128
527.494	-18.7898
527.701	46.54368
527.907	61.29953
528.114	90.81458
528.321	12.82031
528.528	38.11228
528.735	80.27299
528.941	88.70622
529.148	46.54368
529.355	17.0354
529.562	-10.36097
529.768	0.17561
529.975	33.89672
530.182	6.49786
530.388	38.11228
530.595	-33.53931
530.802	50.75953
531.008	-8.2537
531.215	-10.36097
531.422	-67.24789
531.628	21.25059
531.835	40.22009
532.042	-25.11117
532.248	-4.03909
532.455	71.84011
532.661	-54.60793
532.868	29.68125
533.074	8.60532
533.281	23.35822
533.487	54.97546
533.694	33.89672
533.9	-60.92802
534.107	14.92785
534.313	19.14299
534.52	-29.32529
534.726	-29.32529
534.933	4.39042
535.139	71.84011
535.345	65.5157
535.552	92.92297
535.758	67.62381
535.965	73.9483
536.171	48.65159
536.377	33.89672
536.584	-16.68263
536.79	46.54368
536.996	-10.36097
537.203	-16.68263
537.409	6.49786
537.615	-39.86016
537.821	-29.32529
538.028	-46.18078
538.234	59.19149
538.44	-6.14641
538.646	48.65159
538.853	-65.14129
539.059	50.75953
539.265	105.57375
539.471	52.86748
539.677	67.62381
539.883	-44.07393
540.09	78.16474
540.296	6.49786
540.502	31.78897
540.708	-10.36097
540.914	50.75953
541.12	59.19149
541.326	38.11228
541.532	48.65159
541.738	-20.89695
541.944	-29.32529
542.15	67.62381
542.356	-35.64629
542.562	40.22009
542.768	2.283
542.974	42.32793
543.18	107.68229
543.386	38.11228
543.592	14.92785
543.798	46.54368
544.004	42.32793
544.21	52.86748
544.415	36.00449
544.621	-94.6313
544.827	8.60532
545.033	-4.03909
545.239	12.82031
545.445	-14.57544
545.651	33.89672
545.856	80.27299
546.062	29.68125
546.268	44.4358
546.474	44.4358
546.679	12.82031
546.885	-29.32529
547.091	8.60532
547.297	4.39042
547.502	29.68125
547.708	2.283
547.914	46.54368
548.119	-10.36097
548.325	-37.75323
548.531	19.14299
548.736	14.92785
548.942	14.92785
549.147	-8.2537
549.353	-4.03909
549.559	57.08346
549.764	10.7128
549.97	4.39042
550.175	-46.18078
550.381	29.68125
550.586	-33.53931
550.792	4.39042
550.997	54.97546
551.203	109.79086
551.408	76.05651
551.614	40.22009
551.819	17.0354
552.025	67.62381
552.23	8.60532
552.435	21.25059
552.641	63.4076
552.846	38.11228
553.052	-10.36097
553.257	21.25059
553.462	-4.03909
553.668	42.32793
553.873	19.14299
554.078	44.4358
554.283	29.68125
554.489	25.46587
554.694	61.29953
554.899	12.82031
555.105	44.4358
555.31	0.17561
555.515	12.82031
555.72	97.13981
555.925	4.39042
556.131	-44.07393
556.336	23.35822
556.541	109.79086
556.746	57.08346
556.951	50.75953
557.156	97.13981
557.361	130.87769
557.567	8.60532
557.772	40.22009
557.977	-29.32529
558.182	-12.46822
558.387	21.25059
558.592	65.5157
558.797	71.84011
559.002	71.84011
559.207	25.46587
559.412	23.35822
559.617	21.25059
559.822	107.68229
560.027	-16.68263
560.232	90.81458
560.437	95.03138
560.642	84.48956
560.847	31.78897
561.051	-4.03909
561.256	105.57375
561.461	31.78897
561.666	0.17561
561.871	86.59788
562.076	71.84011
562.281	48.65159
562.485	-29.32529
562.69	-18.7898
562.895	31.78897
563.1	-25.11117
563.305	99.24826
563.509	29.68125
563.714	-39.86016
563.919	21.25059
564.123	-20.89695
564.328	27.57355
564.533	50.75953
564.737	-41.96706
564.942	-8.2537
565.147	19.14299
565.351	-6.14641
565.556	-41.96706
565.761	67.62381
565.965	10.7128
566.17	57.08346
566.374	46.54368
566.579	31.78897
566.784	48.65159
566.988	4.39042
567.193	71.84011
567.397	42.32793
567.602	10.7128
567.806	21.25059
568.011	46.54368
568.215	-35.64629
568.42	95.03138
568.624	65.5157
568.828	29.68125
569.033	12.82031
569.237	6.49786
569.442	69.73195
569.646	-4.03909
569.85	92.92297
570.055	52.86748
570.259	36.00449
570.463	2.283
570.668	65.5157
570.872	48.65159
571.076	12.82031
571.281	12.82031
571.485	44.4358
571.689	-18.7898
571.893	118.22533
572.098	46.54368
572.302	40.22009
572.506	-12.46822
572.71	25.46587
572.914	40.22009
573.119	40.22009
573.323	82.38126
573.527	6.49786
573.731	4.39042
573.935	63.4076
574.139	38.11228
574.343	4.39042
574.547	-4.03909
574.751	36.00449
574.955	21.25059
575.159	33.89672
575.364	50.75953
575.568	-4.03909
575.772	31.78897
575.976	84.48956
576.18	33.89672
576.383	29.68125
576.587	29.68125
576.791	42.32793
576.995	33.89672
577.199	73.9483
577.403	0.17561
577.607	42.32793
577.811	92.92297
578.015	69.73195
578.219	107.68229
578.422	63.4076
578.626	21.25059
578.83	-46.18078
579.034	65.5157
579.238	46.54368
579.442	21.25059
579.645	31.78897
579.849	65.5157
580.053	103.46523
580.257	33.89672
580.46	4.39042
580.664	90.81458
580.868	-27.21824
581.071	71.84011
581.275	80.27299
581.479	54.97546
581.682	12.82031
581.886	65.5157
582.09	36.00449
582.293	27.57355
582.497	38.11228
582.7	33.89672
582.904	156.18471
583.107	54.97546
583.311	46.54368
583.515	52.86748
583.718	29.68125
583.922	122.44269
584.125	31.78897
584.329	80.27299
584.532	80.27299
584.735	17.0354
584.939	54.97546
585.142	63.4076
585.346	63.4076
585.549	40.22009
585.753	14.92785
585.956	67.62381
586.159	38.11228
586.363	-1.93175
586.566	128.76891
586.769	23.35822
586.973	42.32793
587.176	135.09531
587.379	109.79086
587.582	4.39042
587.786	12.82031
587.989	21.25059
588.192	82.38126
588.395	71.84011
588.599	63.4076
588.802	29.68125
589.005	48.65159
589.208	86.59788
589.411	19.14299
589.615	90.81458
589.818	63.4076
590.021	38.11228
590.224	88.70622
590.427	21.25059
590.63	90.81458
590.833	40.22009
591.036	84.48956
591.239	90.81458
591.442	67.62381
591.645	29.68125
591.848	52.86748
592.051	46.54368
592.254	46.54368
592.457	29.68125
592.66	38.11228
592.863	29.68125
593.066	-8.2537
593.269	130.87769
593.472	92.92297
593.675	63.4076
593.878	80.27299
594.081	52.86748
594.284	33.89672
594.486	57.08346
594.689	54.97546
594.892	114.00805
595.095	90.81458
595.298	71.84011
595.5	54.97546
595.703	4.39042
595.906	80.27299
596.109	23.35822
596.311	40.22009
596.514	90.81458
596.717	12.82031
596.92	57.08346
597.122	48.65159
597.325	31.78897
597.528	97.13981
597.73	12.82031
597.933	12.82031
598.136	-1.93175
598.338	101.35674
598.541	67.62381
598.743	29.68125
598.946	71.84011
599.148	29.68125
599.351	114.00805
599.554	46.54368
599.756	50.75953
599.959	95.03138
600.161	126.66015
600.363	84.48956
600.566	105.57375
600.768	71.84011
600.971	25.46587
601.173	122.44269
601.376	57.08346
601.578	111.89944
601.78	135.09531
601.983	31.78897
602.185	23.35822
602.388	-12.46822
602.59	6.49786
602.792	44.4358
602.995	33.89672
603.197	126.66015
603.399	99.24826
603.601	71.84011
603.804	61.29953
604.006	105.57375
604.208	103.46523
604.41	46.54368
604.613	99.24826
604.815	114.00805
605.017	88.70622
605.219	97.13981
605.421	71.84011
605.623	-4.03909
605.826	12.82031
606.028	23.35822
606.23	-8.2537
606.432	141.42191
606.634	67.62381
606.836	78.16474
607.038	63.4076
607.24	88.70622
607.442	118.22533
607.644	21.25059
607.846	33.89672
608.048	63.4076
608.25	63.4076
608.452	84.48956
608.654	-6.14641
608.856	59.19149
609.058	57.08346
609.26	31.78897
609.462	78.16474
609.664	29.68125
609.866	54.97546
610.067	44.4358
610.269	19.14299
610.471	27.57355
610.673	120.334
610.875	71.84011
611.077	126.66015
611.278	59.19149
611.48	80.27299
611.682	132.98649
611.884	21.25059
612.085	88.70622
612.287	92.92297
612.489	23.35822
612.69	59.19149
612.892	59.19149
613.094	143.53082
613.295	114.00805
613.497	97.13981
613.699	8.60532
613.9	114.00805
614.102	101.35674
614.304	36.00449
614.505	48.65159
614.707	105.57375
614.908	105.57375
615.11	114.00805
615.311	23.35822
615.513	122.44269
615.714	101.35674
615.916	82.38126
616.117	88.70622
616.319	158.29377
616.52	54.97546
616.722	90.81458
616.923	38.11228
617.124	120.334
617.326	84.48956
617.527	126.66015
617.729	46.54368
617.93	124.55141
618.131	122.44269
618.333	71.84011
618.534	107.68229
618.735	109.79086
618.937	175.16697
619.138	40.22009
619.339	63.4076
619.54	46.54368
619.742	92.92297
619.943	141.42191
620.144	-12.46822
620.345	114.00805
620.546	59.19149
620.748	23.35822
620.949	141.42191
621.15	50.75953
621.351	17.0354
621.552	114.00805
621.753	143.53082
621.954	105.57375
622.155	59.19149
622.356	116.11668
622.558	92.92297
622.759	116.11668
622.96	120.334
623.161	82.38126
623.362	130.87769
623.563	120.334
623.764	57.08346
623.965	105.57375
624.166	50.75953
624.366	54.97546
624.567	61.29953
624.768	116.11668
624.969	156.18471
625.17	88.70622
625.371	101.35674
625.572	88.70622
625.773	90.81458
625.973	2.283
626.174	95.03138
626.375	82.38126
626.576	88.70622
626.777	40.22009
626.977	147.7487
627.178	88.70622
627.379	59.19149
627.58	97.13981
627.78	73.9483
627.981	90.81458
628.182	118.22533
628.382	21.25059
628.583	76.05651
628.784	82.38126
628.984	54.97546
629.185	67.62381
629.386	57.08346
629.586	97.13981
629.787	114.00805
629.987	164.62107
630.188	147.7487
630.388	118.22533
630.589	71.84011
630.79	126.66015
630.99	52.86748
631.191	67.62381
631.391	122.44269
631.591	122.44269
631.792	95.03138
631.992	111.89944
632.193	97.13981
632.393	162.51195
632.594	61.29953
632.794	114.00805
632.994	12.82031
633.195	139.31302
633.395	92.92297
633.595	86.59788
633.796	126.66015
633.996	80.27299
634.196	109.79086
634.397	109.79086
634.597	135.09531
634.797	143.53082
634.997	173.05775
635.198	173.05775
635.398	137.20416
635.598	126.66015
635.798	130.87769
635.998	122.44269
636.199	122.44269
636.399	101.35674
636.599	88.70622
636.799	130.87769
636.999	88.70622
637.199	135.09531
637.399	168.83937
637.599	206.80777
637.799	192.04149
637.999	164.62107
638.199	67.62381
638.399	71.84011
638.599	63.4076
638.799	135.09531
638.999	105.57375
639.199	97.13981
639.399	21.25059
639.599	105.57375
639.799	105.57375
639.999	206.80777
640.199	168.83937
640.399	137.20416
640.599	164.62107
640.799	126.66015
640.998	192.04149
641.198	168.83937
641.398	156.18471
641.598	116.11668
641.798	149.85767
641.997	132.98649
642.197	156.18471
642.397	82.38126
642.597	158.29377
642.796	118.22533
642.996	109.79086
643.196	145.63975
643.395	137.20416
643.595	124.55141
643.795	90.81458
643.994	122.44269
644.194	69.73195
644.394	105.57375
644.593	29.68125
644.793	101.35674
644.992	170.94855
645.192	130.87769
645.392	105.57375
645.591	135.09531
645.791	179.38548
645.99	126.66015
646.19	105.57375
646.389	187.82274
646.589	128.76891
646.788	118.22533
646.987	147.7487
647.187	90.81458
647.386	160.40285
647.586	145.63975
647.785	139.31302
647.984	73.9483
648.184	105.57375
648.383	130.87769
648.582	111.89944
648.782	151.96666
648.981	158.29377
649.18	139.31302
649.38	189.93211
649.579	78.16474
649.778	236.34324
649.977	69.73195
650.177	130.87769
650.376	151.96666
650.575	135.09531
650.774	149.85767
650.973	141.42191
651.173	181.49477
651.372	162.51195
651.571	164.62107
651.77	122.44269
651.969	173.05775
652.168	183.60407
652.367	177.27622
652.566	168.83937
652.765	109.79086
652.964	187.82274
653.163	107.68229
653.362	130.87769
653.561	164.62107
653.76	124.55141
653.959	137.20416
654.158	265.88252
654.357	126.66015
654.556	145.63975
654.755	143.53082
654.954	97.13981
655.153	168.83937
655.352	166.73021
655.551	99.24826
655.749	126.66015
655.948	147.7487
656.147	124.55141
656.346	122.44269
656.545	170.94855
656.743	164.62107
656.942	204.69824
657.141	168.83937
657.34	141.42191
657.538	86.59788
657.737	187.82274
657.936	175.16697
658.135	143.53082
658.333	166.73021
658.532	139.31302
658.731	166.73021
658.929	151.96666
659.128	198.36978
659.326	105.57375
659.525	164.62107
659.724	147.7487
659.922	219.46535
660.121	240.56291
660.319	151.96666
660.518	179.38548
660.716	170.94855
660.915	160.40285
661.113	126.66015
661.312	179.38548
661.51	135.09531
661.709	158.29377
661.907	189.93211
662.105	166.73021
662.304	261.6624
662.502	122.44269
662.701	240.56291
662.899	225.79441
663.097	211.02688
663.296	240.56291
663.494	208.91732
663.692	114.00805
663.891	249.00247
664.089	124.55141
664.287	265.88252
664.485	246.89255
664.684	206.80777
664.882	225.79441
665.08	263.77245
665.278	175.16697
665.476	198.36978
665.675	73.9483
665.873	181.49477
666.071	160.40285
666.269	173.05775
666.467	206.80777
666.665	217.35571
666.863	139.31302
667.061	232.12365
667.259	105.57375
667.457	181.49477
667.655	211.02688
667.853	160.40285
668.051	130.87769
668.249	187.82274
668.447	173.05775
668.645	221.57502
668.843	240.56291
669.041	227.90414
669.239	215.24608
669.437	175.16697
669.635	156.18471
669.833	234.23344
670.031	132.98649
670.229	211.02688
670.426	185.7134
670.624	204.69824
670.822	162.51195
671.02	227.90414
671.218	99.24826
671.415	213.13647
671.613	156.18471
671.811	221.57502
672.009	189.93211
672.206	177.27622
672.404	189.93211
672.602	147.7487
672.799	242.67277
672.997	276.43317
673.195	200.47924
673.392	162.51195
673.59	221.57502
673.788	183.60407
673.985	257.44235
674.183	270.10273
674.38	246.89255
674.578	270.10273
674.775	196.26033
674.973	156.18471
675.17	149.85767
675.368	103.46523
675.565	173.05775
675.763	175.16697
675.96	173.05775
676.158	249.00247
676.355	276.43317
676.553	196.26033
676.75	135.09531
676.947	267.99262
677.145	257.44235
677.342	164.62107
677.539	286.98428
677.737	179.38548
677.934	181.49477
678.131	194.1509
678.329	215.24608
678.526	147.7487
678.723	244.78265
678.92	213.13647
679.118	194.1509
679.315	219.46535
679.512	215.24608
679.709	257.44235
679.906	282.76378
680.104	198.36978
680.301	156.18471
680.498	175.16697
680.695	173.05775
680.892	284.87402
681.089	198.36978
681.286	230.01389
681.483	253.22237
681.68	126.66015
681.877	225.79441
682.075	189.93211
682.272	219.46535
682.469	206.80777
682.665	324.97208
682.862	189.93211
683.059	278.54336
683.256	175.16697
683.453	236.34324
683.65	219.46535
683.847	189.93211
684.044	236.34324
684.241	158.29377
684.438	147.7487
684.635	219.46535
684.831	270.10273
685.028	234.23344
685.225	164.62107
685.422	198.36978
685.619	196.26033
685.815	177.27622
686.012	244.78265
686.209	194.1509
686.405	227.90414
686.602	244.78265
686.799	223.68471
686.996	202.58873
687.192	204.69824
687.389	217.35571
687.586	196.26033
687.782	282.76378
687.979	249.00247
688.175	242.67277
688.372	282.76378
688.568	219.46535
688.765	255.33235
688.962	202.58873
689.158	198.36978
689.355	185.7134
689.551	238.45306
689.748	189.93211
689.944	162.51195
690.14	230.01389
690.337	293.31517
690.533	312.30883
690.73	198.36978
690.926	223.68471
691.123	255.33235
691.319	242.67277
691.515	324.97208
691.712	170.94855
691.908	177.27622
692.104	223.68471
692.301	249.00247
692.497	156.18471
692.693	232.12365
692.889	272.21286
693.086	263.77245
693.282	265.88252
693.478	263.77245
693.674	249.00247
693.87	282.76378
694.067	202.58873
694.263	232.12365
694.459	217.35571
694.655	223.68471
694.851	244.78265
695.047	310.19835
695.243	276.43317
695.439	200.47924
695.635	234.23344
695.831	185.7134
696.027	259.55236
696.224	223.68471
696.42	240.56291
696.615	215.24608
696.811	240.56291
697.007	267.99262
697.203	270.10273
697.399	208.91732
697.595	240.56291
697.791	227.90414
697.987	274.323
698.183	295.42551
698.379	265.88252
698.575	200.47924
698.77	295.42551
698.966	236.34324
699.162	175.16697
699.358	301.75662
699.554	223.68471
699.749	240.56291
699.945	232.12365
700.141	206.80777
700.337	251.11241
700.532	227.90414
700.728	206.80777
700.924	219.46535
701.119	135.09531
701.315	303.86702
701.511	234.23344
701.706	257.44235
701.902	181.49477
702.097	249.00247
702.293	312.30883
702.489	177.27622
702.684	257.44235
702.88	240.56291
703.075	259.55236
703.271	232.12365
703.466	295.42551
703.662	227.90414
703.857	192.04149
704.053	185.7134
704.248	267.99262
704.443	234.23344
704.639	291.20486
704.834	310.19835
705.03	259.55236
705.225	282.76378
705.42	240.56291
705.616	274.323
705.811	259.55236
706.006	293.31517
706.202	198.36978
706.397	291.20486
706.592	286.98428
706.787	261.6624
706.983	177.27622
707.178	206.80777
707.373	198.36978
707.568	208.91732
707.763	189.93211
707.959	189.93211
708.154	263.77245
708.349	305.97745
708.544	225.79441
708.739	282.76378
708.934	274.323
709.129	236.34324
709.324	261.6624
709.519	293.31517
709.714	164.62107
709.909	310.19835
710.104	204.69824
710.299	232.12365
710.494	147.7487
710.689	225.79441
710.884	246.89255
711.079	200.47924
711.274	223.68471
711.469	310.19835
711.664	257.44235
711.859	219.46535
712.054	282.76378
712.249	242.67277
712.443	240.56291
712.638	198.36978
712.833	236.34324
713.028	360.85473
713.223	251.11241
713.417	223.68471
713.612	192.04149
713.807	253.22237
714.002	295.42551
714.196	301.75662
714.391	274.323
714.586	238.45306
714.78	244.78265
714.975	227.90414
715.17	204.69824
715.364	232.12365
715.559	198.36978
715.754	249.00247
715.948	310.19835
716.143	308.08789
716.337	217.35571
716.532	295.42551
716.726	322.8615
716.921	276.43317
717.115	261.6624
717.31	314.41933
717.504	166.73021
717.699	225.79441
717.893	257.44235
718.088	301.75662
718.282	236.34324
718.476	316.52984
718.671	206.80777
718.865	282.76378
719.059	215.24608
719.254	255.33235
719.448	242.67277
719.642	181.49477
719.837	270.10273
720.031	282.76378
720.225	175.16697
720.419	198.36978
720.614	173.05775
720.808	242.67277
721.002	253.22237
721.196	295.42551
721.39	189.93211
721.585	219.46535
721.779	232.12365
721.973	249.00247
722.167	253.22237
722.361	215.24608
722.555	265.88252
722.749	257.44235
722.943	261.6624
723.137	234.23344
723.331	232.12365
723.525	305.97745
723.719	284.87402
723.913	261.6624
724.107	240.56291
724.301	289.09456
724.495	232.12365
724.689	265.88252
724.883	215.24608
725.077	253.22237
725.271	164.62107
725.465	236.34324
725.659	196.26033
725.853	295.42551
726.046	200.47924
726.24	240.56291
726.434	185.7134
726.628	232.12365
726.822	192.04149
727.015	265.88252
727.209	278.54336
727.403	308.08789
727.596	316.52984
727.79	251.11241
727.984	204.69824
728.177	223.68471
728.371	261.6624
728.565	270.10273
728.758	211.02688
728.952	240.56291
729.146	173.05775
729.339	291.20486
729.533	230.01389
729.726	249.00247
729.92	187.82274
730.113	320.75093
730.307	282.76378
730.5	358.74385
730.694	255.33235
730.887	194.1509
731.081	274.323
731.274	265.88252
731.468	320.75093
731.661	232.12365
731.854	225.79441
732.048	312.30883
732.241	255.33235
732.435	249.00247
732.628	333.4146
732.821	217.35571
733.014	265.88252
733.208	265.88252
733.401	185.7134
733.594	234.23344
733.788	381.9645
733.981	223.68471
734.174	308.08789
734.367	280.65356
734.56	251.11241
734.754	297.53586
734.947	289.09456
735.14	293.31517
735.333	246.89255
735.526	301.75662
735.719	286.98428
735.912	240.56291
736.105	291.20486
736.298	362.96564
736.491	246.89255
736.684	316.52984
736.877	267.99262
737.07	293.31517
737.263	240.56291
737.456	223.68471
737.649	341.85741
737.842	267.99262
738.035	289.09456
738.228	244.78265
738.421	242.67277
738.614	249.00247
738.807	331.30395
739	240.56291
739.192	276.43317
739.385	301.75662
739.578	270.10273
739.771	267.99262
739.964	253.22237
740.156	299.64623
740.349	257.44235
740.542	208.91732
740.735	284.87402
740.927	291.20486
741.12	181.49477
741.313	253.22237
741.505	303.86702
741.698	255.33235
741.891	274.323
742.083	261.6624
742.276	310.19835
742.468	360.85473
742.661	208.91732
742.854	305.97745
743.046	272.21286
743.239	341.85741
743.431	261.6624
743.624	211.02688
743.816	299.64623
744.009	274.323
744.201	230.01389
744.393	322.8615
744.586	253.22237
744.778	227.90414
744.971	244.78265
745.163	282.76378
745.355	282.76378
745.548	221.57502
745.74	181.49477
745.932	242.67277
746.125	232.12365
746.317	320.75093
746.509	282.76378
746.702	217.35571
746.894	274.323
747.086	282.76378
747.278	249.00247
747.471	293.31517
747.663	278.54336
747.855	333.4146
748.047	308.08789
748.239	286.98428
748.431	217.35571
748.623	339.74668
748.815	274.323
749.008	261.6624
749.2	244.78265
749.392	253.22237
749.584	251.11241
749.776	286.98428
749.968	232.12365
750.16	299.64623
750.352	261.6624
750.544	280.65356
750.736	346.07892
750.928	267.99262
751.12	282.76378
751.311	286.98428
751.503	305.97745
751.695	291.20486
751.887	272.21286
752.079	219.46535
752.271	240.56291
752.463	308.08789
752.654	234.23344
752.846	230.01389
753.038	316.52984
753.23	225.79441
753.421	286.98428
753.613	301.75662
753.805	308.08789
753.997	265.88252
754.188	227.90414
754.38	217.35571
754.572	185.7134
754.763	276.43317
754.955	343.96815
755.146	206.80777
755.338	217.35571
755.53	230.01389
755.721	259.55236
755.913	291.20486
756.104	249.00247
756.296	230.01389
756.487	291.20486
756.679	257.44235
756.87	278.54336
757.062	232.12365
757.253	270.10273
757.445	284.87402
757.636	278.54336
757.827	267.99262
758.019	156.18471
758.21	217.35571
758.401	234.23344
758.593	274.323
758.784	289.09456
758.975	377.74241
759.167	299.64623
759.358	232.12365
759.549	253.22237
759.74	310.19835
759.932	255.33235
760.123	263.77245
760.314	267.99262
760.505	276.43317
760.696	223.68471
760.888	303.86702
761.079	293.31517
761.27	276.43317
761.461	257.44235
761.652	217.35571
761.843	274.323
762.034	259.55236
762.225	198.36978
762.416	333.4146
762.607	274.323
762.798	215.24608
762.989	223.68471
763.18	236.34324
763.371	244.78265
763.562	265.88252
763.753	194.1509
763.944	316.52984
764.135	206.80777
764.326	251.11241
764.517	278.54336
764.708	291.20486
764.899	232.12365
765.089	291.20486
765.28	261.6624
765.471	244.78265
765.662	189.93211
765.853	303.86702
766.043	206.80777
766.234	291.20486
766.425	208.91732
766.615	217.35571
766.806	265.88252
766.997	265.88252
767.187	274.323
767.378	255.33235
767.569	253.22237
767.759	343.96815
767.95	232.12365
768.141	217.35571
768.331	259.55236
768.522	278.54336
768.712	215.24608
768.903	185.7134
769.093	200.47924
769.284	227.90414
769.474	211.02688
769.665	206.80777
769.855	227.90414
770.046	251.11241
770.236	192.04149
770.426	289.09456
770.617	293.31517
770.807	232.12365
770.998	143.53082
771.188	278.54336
771.378	181.49477
771.569	291.20486
771.759	202.58873
771.949	206.80777
772.139	232.12365
772.33	223.68471
772.52	225.79441
772.71	181.49477
772.9	221.57502
773.09	274.323
773.281	225.79441
773.471	173.05775
773.661	301.75662
773.851	217.35571
774.041	244.78265
774.231	177.27622
774.421	265.88252
774.611	272.21286
774.802	215.24608
774.992	149.85767
775.182	274.323
775.372	265.88252
775.562	166.73021
775.752	259.55236
775.942	232.12365
776.131	187.82274
776.321	181.49477
776.511	225.79441
776.701	141.42191
776.891	217.35571
777.081	240.56291
777.271	263.77245
777.461	177.27622
777.651	162.51195
777.84	265.88252
778.03	200.47924
778.22	215.24608
778.41	208.91732
778.599	166.73021
778.789	208.91732
778.979	183.60407
779.169	168.83937
779.358	151.96666
779.548	189.93211
779.738	166.73021
779.927	221.57502
780.117	168.83937
780.307	126.66015
780.496	185.7134
780.686	230.01389
780.875	194.1509
781.065	223.68471
781.254	217.35571
781.444	189.93211
781.633	261.6624
781.823	219.46535
782.012	194.1509
782.202	139.31302
782.391	181.49477
782.581	213.13647
782.77	246.89255
782.96	217.35571
783.149	185.7134
783.338	126.66015
783.528	166.73021
783.717	206.80777
783.906	219.46535
784.096	230.01389
784.285	236.34324
784.474	215.24608
784.663	173.05775
784.853	242.67277
785.042	177.27622
785.231	147.7487
785.42	97.13981
785.61	166.73021
785.799	147.7487
785.988	253.22237
786.177	122.44269
786.366	211.02688
786.555	183.60407
786.744	217.35571
786.933	175.16697
787.122	179.38548
787.312	181.49477
787.501	164.62107
787.69	175.16697
787.879	299.64623
788.068	187.82274
788.257	246.89255
788.445	179.38548
788.634	126.66015
788.823	154.07568
789.012	175.16697
789.201	232.12365
789.39	200.47924
789.579	126.66015
789.768	238.45306
789.957	116.11668
790.145	162.51195
790.334	151.96666
790.523	126.66015
790.712	149.85767
790.9	130.87769
791.089	177.27622
791.278	189.93211
791.467	202.58873
791.655	236.34324
791.844	166.73021
792.033	130.87769
792.221	179.38548
792.41	189.93211
792.599	232.12365
792.787	253.22237
792.976	206.80777
793.164	116.11668
793.353	132.98649
793.541	158.29377
793.73	225.79441
793.918	173.05775
794.107	198.36978
794.295	90.81458
794.484	149.85767
794.672	198.36978
794.861	116.11668
795.049	211.02688
795.238	80.27299
795.426	114.00805
795.614	173.05775
795.803	164.62107
795.991	137.20416
796.179	177.27622
796.368	135.09531
796.556	200.47924
796.744	124.55141
796.932	192.04149
797.121	143.53082
797.309	187.82274
797.497	202.58873
797.685	130.87769
797.874	111.89944
798.062	202.58873
798.25	120.334
798.438	71.84011
798.626	170.94855
798.814	181.49477
799.002	173.05775
799.19	196.26033
799.378	206.80777
799.566	230.01389
799.755	160.40285
799.943	168.83937
800.131	107.68229
800.318	114.00805
800.506	225.79441
800.694	253.22237
800.882	162.51195
801.07	109.79086
801.258	192.04149
801.446	217.35571
801.634	151.96666
801.822	139.31302
802.01	135.09531
802.197	198.36978
802.385	122.44269
802.573	189.93211
802.761	141.42191
802.949	211.02688
803.136	230.01389
803.324	126.66015
803.512	145.63975
803.699	185.7134
803.887	194.1509
804.075	137.20416
804.262	194.1509
804.45	156.18471
804.638	202.58873
804.825	137.20416
805.013	122.44269
805.201	177.27622
805.388	88.70622
805.576	149.85767
805.763	118.22533
805.951	227.90414
806.138	114.00805
806.326	181.49477
806.513	164.62107
806.701	149.85767
806.888	196.26033
807.075	135.09531
807.263	141.42191
807.45	198.36978
807.638	164.62107
807.825	139.31302
808.012	187.82274
808.2	240.56291
808.387	166.73021
808.574	135.09531
808.761	213.13647
808.949	200.47924
809.136	177.27622
809.323	122.44269
809.51	173.05775
809.698	192.04149
809.885	141.42191
810.072	206.80777
810.259	107.68229
810.446	151.96666
810.633	120.334
810.82	211.02688
811.008	194.1509
811.195	257.44235
811.382	181.49477
811.569	189.93211
811.756	84.48956
811.943	196.26033
812.13	147.7487
812.317	189.93211
812.504	162.51195
812.691	162.51195
812.878	151.96666
813.064	168.83937
813.251	147.7487
813.438	202.58873
813.625	179.38548
813.812	54.97546
813.999	177.27622
814.186	194.1509
814.372	179.38548
814.559	192.04149
814.746	130.87769
814.933	116.11668
815.12	181.49477
815.306	225.79441
815.493	183.60407
815.68	257.44235
815.866	206.80777
816.053	234.23344
816.24	181.49477
816.426	244.78265
816.613	194.1509
816.799	263.77245
816.986	120.334
817.173	215.24608
817.359	223.68471
817.546	236.34324
817.732	196.26033
817.919	88.70622
818.105	177.27622
818.292	259.55236
818.478	175.16697
818.665	173.05775
818.851	198.36978
819.037	122.44269
819.224	225.79441
819.41	223.68471
819.597	126.66015
819.783	223.68471
819.969	223.68471
820.156	232.12365
820.342	122.44269
820.528	139.31302
820.714	177.27622
820.901	175.16697
821.087	179.38548
821.273	173.05775
821.459	274.323
821.646	183.60407
821.832	249.00247
822.018	297.53586
822.204	177.27622
822.39	173.05775
822.576	244.78265
822.762	181.49477
822.948	185.7134
823.134	194.1509
823.32	158.29377
823.507	177.27622
823.693	175.16697
823.879	219.46535
824.065	234.23344
824.25	132.98649
824.436	168.83937
824.622	181.49477
824.808	192.04149
824.994	147.7487
825.18	221.57502
825.366	251.11241
825.552	114.00805
825.738	141.42191
825.923	122.44269
826.109	219.46535
826.295	173.05775
826.481	215.24608
826.667	215.24608
826.852	173.05775
827.038	164.62107
827.224	80.27299
827.409	116.11668
827.595	168.83937
827.781	158.29377
827.966	187.82274
828.152	168.83937
828.338	198.36978
828.523	194.1509
828.709	147.7487
828.894	173.05775
829.08	126.66015
829.266	181.49477
829.451	103.46523
829.637	187.82274
829.822	189.93211
830.008	42.32793
830.193	130.87769
830.378	147.7487
830.564	105.57375
830.749	175.16697
830.935	160.40285
831.12	122.44269
831.305	154.07568
831.491	120.334
831.676	200.47924
831.861	132.98649
832.047	57.08346
832.232	173.05775
832.417	185.7134
832.602	232.12365
832.788	168.83937
832.973	147.7487
833.158	118.22533
833.343	166.73021
833.528	230.01389
833.714	109.79086
833.899	185.7134
834.084	168.83937
834.269	111.89944
834.454	156.18471
834.639	145.63975
834.824	126.66015
835.009	175.16697
835.194	101.35674
835.379	124.55141
835.564	162.51195
835.749	175.16697
835.934	189.93211
836.119	122.44269
836.304	162.51195
836.489	116.11668
836.674	185.7134
836.859	151.96666
837.044	90.81458
837.228	185.7134
837.413	139.31302
837.598	141.42191
837.783	187.82274
837.968	181.49477
838.152	177.27622
838.337	107.68229
838.522	147.7487
838.707	118.22533
838.891	105.57375
839.076	132.98649
839.261	137.20416
839.445	164.62107
839.63	59.19149
839.815	130.87769
839.999	65.5157
840.184	130.87769
840.368	158.29377
840.553	166.73021
840.737	135.09531
840.922	175.16697
841.106	88.70622
841.291	97.13981
841.475	118.22533
841.66	116.11668
841.844	78.16474
842.029	130.87769
842.213	164.62107
842.397	78.16474
842.582	120.334
842.766	63.4076
842.951	122.44269
843.135	46.54368
843.319	122.44269
843.504	128.76891
843.688	73.9483
843.872	29.68125
844.056	132.98649
844.241	149.85767
844.425	154.07568
844.609	122.44269
844.793	114.00805
844.977	183.60407
845.161	101.35674
845.346	189.93211
845.53	145.63975
845.714	154.07568
845.898	158.29377
846.082	109.79086
846.266	82.38126
846.45	208.91732
846.634	4.39042
846.818	130.87769
847.002	151.96666
847.186	57.08346
847.37	181.49477
847.554	105.57375
847.738	88.70622
847.922	84.48956
848.106	170.94855
848.29	122.44269
848.473	141.42191
848.657	118.22533
848.841	107.68229
849.025	151.96666
849.209	92.92297
849.392	82.38126
849.576	185.7134
849.76	189.93211
849.944	109.79086
850.127	88.70622
850.311	107.68229
850.495	164.62107
850.678	107.68229
850.862	154.07568
851.046	160.40285
851.229	88.70622
851.413	130.87769
851.596	143.53082
851.78	42.32793
851.964	105.57375
852.147	177.27622
852.331	88.70622
852.514	46.54368
852.698	156.18471
852.881	103.46523
853.065	80.27299
853.248	109.79086
853.431	154.07568
853.615	130.87769
853.798	86.59788
853.982	128.76891
854.165	82.38126
854.348	71.84011
854.532	78.16474
854.715	114.00805
854.898	97.13981
855.081	-4.03909
855.265	46.54368
855.448	105.57375
855.631	92.92297
855.814	139.31302
855.997	170.94855
856.181	40.22009
856.364	80.27299
856.547	54.97546
856.73	14.92785
856.913	147.7487
857.096	162.51195
857.279	107.68229
857.462	145.63975
857.645	135.09531
857.828	52.86748
858.011	73.9483
858.194	114.00805
858.377	107.68229
858.56	86.59788
858.743	86.59788
858.926	90.81458
859.109	88.70622
859.292	84.48956
859.475	164.62107
859.658	156.18471
859.841	132.98649
860.023	156.18471
860.206	122.44269
860.389	38.11228
860.572	27.57355
860.755	116.11668
860.937	143.53082
861.12	132.98649
861.303	82.38126
861.486	101.35674
861.668	82.38126
861.851	173.05775
862.034	143.53082
862.216	97.13981
862.399	21.25059
862.581	2.283
862.764	101.35674
862.947	137.20416
863.129	116.11668
863.312	105.57375
863.494	90.81458
863.677	88.70622
863.859	90.81458
864.042	139.31302
864.224	132.98649
864.406	76.05651
864.589	40.22009
864.771	84.48956
864.954	122.44269
865.136	160.40285
865.318	126.66015
865.501	54.97546
865.683	-4.03909
865.865	48.65159
866.048	99.24826
866.23	154.07568
866.412	139.31302
866.594	80.27299
866.777	-14.57544
866.959	50.75953
867.141	86.59788
867.323	21.25059
867.505	80.27299
867.687	97.13981
867.869	73.9483
868.052	69.73195
868.234	90.81458
868.416	73.9483
868.598	76.05651
868.78	156.18471
868.962	128.76891
869.144	42.32793
869.326	50.75953
869.508	97.13981
869.69	42.32793
869.872	95.03138
870.054	109.79086
870.236	54.97546
870.417	105.57375
870.599	82.38126
870.781	88.70622
870.963	54.97546
871.145	25.46587
871.327	90.81458
871.508	57.08346
871.69	71.84011
871.872	33.89672
872.054	63.4076
872.235	92.92297
872.417	116.11668
872.599	63.4076
872.78	114.00805
872.962	63.4076
873.144	105.57375
873.325	126.66015
873.507	156.18471
873.689	97.13981
873.87	105.57375
874.052	156.18471
874.233	88.70622
874.415	63.4076
874.596	29.68125
874.778	65.5157
874.959	122.44269
875.141	-1.93175
875.322	38.11228
875.503	76.05651
875.685	33.89672
875.866	164.62107
876.048	88.70622
876.229	-8.2537
876.41	88.70622
876.592	78.16474
876.773	44.4358
876.954	80.27299
877.136	116.11668
877.317	76.05651
877.498	128.76891
877.679	111.89944
877.86	44.4358
878.042	46.54368
878.223	86.59788
878.404	92.92297
878.585	137.20416
878.766	130.87769
878.947	80.27299
879.128	42.32793
879.309	107.68229
879.49	59.19149
879.672	76.05651
879.853	67.62381
880.034	65.5157
880.215	76.05651
880.396	67.62381
880.576	42.32793
880.757	78.16474
880.938	42.32793
881.119	122.44269
881.3	27.57355
881.481	65.5157
881.662	139.31302
881.843	101.35674
882.023	114.00805
882.204	80.27299
882.385	109.79086
882.566	97.13981
882.747	135.09531
882.927	109.79086
883.108	54.97546
883.289	128.76891
883.469	54.97546
883.65	147.7487
883.831	63.4076
884.011	105.57375
884.192	101.35674
884.373	71.84011
884.553	116.11668
884.734	71.84011
884.914	71.84011
885.095	33.89672
885.275	120.334
885.456	46.54368
885.636	122.44269
885.817	114.00805
885.997	36.00449
886.178	103.46523
886.358	130.87769
886.538	40.22009
886.719	67.62381
886.899	63.4076
887.08	109.79086
887.26	105.57375
887.44	118.22533
887.621	92.92297
887.801	73.9483
887.981	97.13981
888.161	114.00805
888.342	101.35674
888.522	145.63975
888.702	120.334
888.882	65.5157
889.062	76.05651
889.242	99.24826
889.423	25.46587
889.603	90.81458
889.783	105.57375
889.963	124.55141
890.143	132.98649
890.323	149.85767
890.503	99.24826
890.683	130.87769
890.863	99.24826
891.043	38.11228
891.223	67.62381
891.403	114.00805
891.583	90.81458
891.763	63.4076
891.943	99.24826
892.122	59.19149
892.302	162.51195
892.482	105.57375
892.662	57.08346
892.842	107.68229
893.022	73.9483
893.201	46.54368
893.381	80.27299
893.561	160.40285
893.741	88.70622
893.92	95.03138
894.1	137.20416
894.28	120.334
894.459	122.44269
894.639	29.68125
894.819	126.66015
894.998	46.54368
895.178	29.68125
895.357	42.32793
895.537	101.35674
895.716	158.29377
895.896	135.09531
896.075	95.03138
896.255	65.5157
896.434	151.96666
896.614	48.65159
896.793	54.97546
896.973	107.68229
897.152	101.35674
897.331	65.5157
897.511	65.5157
897.69	71.84011
897.87	-12.46822
898.049	128.76891
898.228	97.13981
898.407	88.70622
898.587	36.00449
898.766	40.22009
898.945	124.55141
899.124	88.70622
899.304	90.81458
899.483	82.38126
899.662	97.13981
899.841	116.11668
900.02	67.62381
900.199	65.5157
900.378	86.59788
900.557	46.54368
900.737	44.4358
900.916	132.98649
901.095	-12.46822
901.274	10.7128
901.453	46.54368
901.632	42.32793
901.811	90.81458
901.989	50.75953
902.168	86.59788
902.347	73.9483
902.526	160.40285
902.705	38.11228
902.884	57.08346
903.063	25.46587
903.242	46.54368
903.42	97.13981
903.599	118.22533
903.778	65.5157
903.957	10.7128
904.135	40.22009
904.314	23.35822
904.493	40.22009
904.672	42.32793
904.85	29.68125
905.029	33.89672
905.207	92.92297
905.386	147.7487
905.565	109.79086
905.743	69.73195
905.922	40.22009
906.1	50.75953
906.279	-14.57544
906.457	21.25059
906.636	84.48956
906.814	151.96666
906.993	-14.57544
907.171	63.4076
907.35	97.13981
907.528	97.13981
907.707	50.75953
907.885	21.25059
908.063	4.39042
908.242	99.24826
908.42	29.68125
908.598	114.00805
908.777	52.86748
908.955	69.73195
909.133	54.97546
909.311	105.57375
909.49	46.54368
909.668	107.68229
909.846	50.75953
910.024	67.62381
910.202	25.46587
910.38	54.97546
910.559	-18.7898
910.737	23.35822
910.915	50.75953
911.093	46.54368
911.271	139.31302
911.449	54.97546
911.627	132.98649
911.805	135.09531
911.983	2.283
912.161	76.05651
912.339	57.08346
912.517	6.49786
912.695	38.11228
912.872	82.38126
913.05	12.82031
913.228	46.54368
913.406	160.40285
913.584	29.68125
913.762	10.7128
913.939	63.4076
914.117	59.19149
914.295	67.62381
914.473	69.73195
914.65	54.97546
914.828	76.05651
915.006	105.57375
915.184	80.27299
915.361	122.44269
915.539	101.35674
915.716	80.27299
915.894	63.4076
916.072	63.4076
916.249	67.62381
916.427	21.25059
916.604	38.11228
916.782	-1.93175
916.959	88.70622
917.137	73.9483
917.314	88.70622
917.492	105.57375
917.669	-16.68263
917.847	67.62381
918.024	65.5157
918.201	-4.03909
918.379	-33.53931
918.556	21.25059
918.733	40.22009
918.911	21.25059
919.088	90.81458
919.265	59.19149
919.442	8.60532
919.62	38.11228
919.797	-4.03909
919.974	63.4076
920.151	101.35674
920.328	6.49786
920.506	67.62381
920.683	38.11228
920.86	17.0354
921.037	-25.11117
921.214	40.22009
921.391	65.5157
921.568	57.08346
921.745	50.75953
921.922	54.97546
922.099	40.22009
922.276	-4.03909
922.453	109.79086
922.63	8.60532
922.807	36.00449
922.984	122.44269
923.161	-8.2537
923.338	42.32793
923.514	95.03138
923.691	4.39042
923.868	48.65159
924.045	65.5157
924.222	38.11228
924.399	63.4076
924.575	97.13981
924.752	73.9483
924.929	80.27299
925.105	38.11228
925.282	54.97546
925.459	69.73195
925.635	63.4076
925.812	38.11228
925.989	17.0354
926.165	80.27299
926.342	71.84011
926.518	57.08346
926.695	54.97546
926.871	-4.03909
927.048	71.84011
927.224	29.68125
927.401	63.4076
927.577	122.44269
927.754	14.92785
927.93	82.38126
928.107	54.97546
928.283	-25.11117
928.459	0.17561
928.636	111.89944
928.812	12.82031
928.988	6.49786
929.165	48.65159
929.341	54.97546
929.517	48.65159
929.693	6.49786
929.87	21.25059
930.046	17.0354
930.222	65.5157
930.398	0.17561
930.574	59.19149
930.751	-8.2537
930.927	105.57375
931.103	50.75953
931.279	57.08346
931.455	31.78897
931.631	12.82031
931.807	38.11228
931.983	46.54368
932.159	-14.57544
932.335	78.16474
932.511	67.62381
932.687	12.82031
932.863	54.97546
933.039	2.283
933.215	76.05651
933.391	46.54368
933.566	-12.46822
933.742	44.4358
933.918	25.46587
934.094	97.13981
934.27	88.70622
934.445	-37.75323
934.621	-35.64629
934.797	-4.03909
934.973	6.49786
935.148	69.73195
935.324	65.5157
935.5	65.5157
935.675	29.68125
935.851	4.39042
936.027	23.35822
936.202	38.11228
936.378	57.08346
936.553	10.7128
936.729	54.97546
936.904	61.29953
937.08	107.68229
937.255	-71.461
937.431	33.89672
937.606	23.35822
937.782	2.283
937.957	48.65159
938.133	-37.75323
938.308	-4.03909
938.483	42.32793
938.659	31.78897
938.834	-58.82135
939.009	-20.89695
939.185	71.84011
939.36	21.25059
939.535	-20.89695
939.71	-12.46822
939.886	48.65159
940.061	107.68229
940.236	92.92297
940.411	50.75953
940.586	-18.7898
940.761	-35.64629
940.937	4.39042
941.112	82.38126
941.287	12.82031
941.462	6.49786
941.637	-37.75323
941.812	12.82031
941.987	-44.07393
942.162	-63.03467
942.337	71.84011
942.512	10.7128
942.687	86.59788
942.862	-48.28761
943.037	65.5157
943.212	21.25059
943.386	-12.46822
943.561	38.11228
943.736	4.39042
943.911	52.86748
944.086	63.4076
944.26	0.17561
944.435	6.49786
944.61	40.22009
944.785	19.14299
944.959	25.46587
945.134	29.68125
945.309	-16.68263
945.483	40.22009
945.658	124.55141
945.833	6.49786
946.007	21.25059
946.182	-1.93175
946.357	63.4076
946.531	4.39042
946.706	-18.7898
946.88	-25.11117
947.055	12.82031
947.229	82.38126
947.404	-29.32529
947.578	-10.36097
947.752	-1.93175
947.927	99.24826
948.101	-54.60793
948.276	38.11228
948.45	36.00449
948.624	-8.2537
948.799	27.57355
948.973	54.97546
949.147	29.68125
949.321	33.89672
949.496	17.0354
949.67	14.92785
949.844	19.14299
950.018	23.35822
950.193	-20.89695
950.367	-6.14641
950.541	-16.68263
950.715	44.4358
950.889	25.46587
951.063	21.25059
951.237	23.35822
951.411	86.59788
951.585	29.68125
951.759	-12.46822
951.933	36.00449
952.107	12.82031
952.281	92.92297
952.455	-29.32529
952.629	71.84011
952.803	12.82031
952.977	33.89672
953.151	31.78897
953.325	6.49786
953.499	33.89672
953.672	46.54368
953.846	36.00449
954.02	27.57355
954.194	36.00449
954.368	8.60532
954.541	21.25059
954.715	88.70622
954.889	6.49786
955.062	12.82031
955.236	57.08346
955.41	99.24826
955.583	-20.89695
955.757	67.62381
955.93	-4.03909
956.104	-18.7898
956.278	78.16474
956.451	46.54368
956.625	57.08346
956.798	63.4076
956.972	-12.46822
957.145	29.68125
957.319	84.48956
957.492	6.49786
957.665	90.81458
957.839	21.25059
958.012	-20.89695
958.185	76.05651
958.359	46.54368
958.532	17.0354
958.705	-63.03467
958.879	-1.93175
959.052	50.75953
959.225	4.39042
959.398	46.54368
959.572	48.65159
959.745	2.283
959.918	71.84011
960.091	31.78897
960.264	52.86748
960.438	97.13981
960.611	52.86748
960.784	-10.36097
960.957	-25.11117
961.13	29.68125
961.303	59.19149
961.476	36.00449
961.649	17.0354
961.822	-12.46822
961.995	57.08346
962.168	97.13981
962.341	2.283
962.514	23.35822
962.686	-44.07393
962.859	14.92785
963.032	-39.86016
963.205	-4.03909
963.378	8.60532
963.551	59.19149
963.723	33.89672
963.896	-44.07393
964.069	25.46587
964.242	50.75953
964.414	-4.03909
964.587	50.75953
964.76	-25.11117
964.932	-37.75323
965.105	23.35822
965.278	40.22009
965.45	-12.46822
965.623	38.11228
965.795	67.62381
965.968	-39.86016
966.14	4.39042
966.313	4.39042
966.485	46.54368
966.658	-39.86016
966.83	-18.7898
967.003	80.27299
967.175	57.08346
967.348	-8.2537
967.52	-1.93175
967.692	4.39042
967.865	29.68125
968.037	27.57355
968.209	-8.2537
968.382	21.25059
968.554	-29.32529
968.726	-14.57544
968.898	84.48956
969.071	21.25059
969.243	-25.11117
969.415	12.82031
969.587	12.82031
969.759	38.11228
969.932	27.57355
970.104	-16.68263
970.276	19.14299
970.448	63.4076
970.62	-4.03909
970.792	38.11228
970.964	50.75953
971.136	-6.14641
971.308	23.35822
971.48	50.75953
971.652	23.35822
971.824	12.82031
971.996	17.0354
972.168	48.65159
972.339	17.0354
972.511	17.0354
972.683	23.35822
972.855	-31.43231
973.027	17.0354
973.199	4.39042
973.37	14.92785
973.542	69.73195
973.714	33.89672
973.886	54.97546
974.057	-33.53931
974.229	54.97546
974.401	17.0354
974.572	38.11228
974.744	59.19149
974.915	46.54368
975.087	-52.50118
975.259	33.89672
975.43	8.60532
975.602	44.4358
975.773	12.82031
975.945	21.25059
976.116	-27.21824
976.288	50.75953
976.459	59.19149
976.63	14.92785
976.802	42.32793
976.973	-27.21824
977.145	21.25059
977.316	40.22009
977.487	-10.36097
977.659	-4.03909
977.83	-33.53931
978.001	57.08346
978.172	65.5157
978.344	29.68125
978.515	46.54368
978.686	36.00449
978.857	14.92785
979.028	40.22009
979.2	92.92297
979.371	67.62381
979.542	38.11228
979.713	73.9483
979.884	-16.68263
980.055	17.0354
980.226	29.68125
980.397	6.49786
980.568	-12.46822
980.739	29.68125
980.91	23.35822
981.081	40.22009
981.252	-1.93175
981.423	4.39042
981.594	-18.7898
981.765	21.25059
981.936	-1.93175
982.106	33.89672
982.277	44.4358
982.448	-16.68263
982.619	65.5157
982.79	-12.46822
982.96	38.11228
983.131	23.35822
983.302	46.54368
983.472	17.0354
983.643	31.78897
983.814	-37.75323
983.984	-18.7898
984.155	90.81458
984.326	8.60532
984.496	54.97546
984.667	46.54368
984.837	-44.07393
985.008	19.14299
985.178	-50.3944
985.349	21.25059
985.519	-58.82135
985.69	67.62381
985.86	50.75953
986.031	-31.43231
986.201	67.62381
986.371	99.24826
986.542	92.92297
986.712	67.62381
986.882	82.38126
987.053	-33.53931
987.223	33.89672
987.393	71.84011
987.563	46.54368
987.734	54.97546
987.904	2.283
988.074	69.73195
988.244	12.82031
988.414	-18.7898
988.585	120.334
988.755	25.46587
988.925	-20.89695
989.095	82.38126
989.265	46.54368
989.435	-4.03909
989.605	-20.89695
989.775	38.11228
989.945	42.32793
990.115	21.25059
990.285	-63.03467
990.455	12.82031
990.625	-60.92802
990.795	50.75953
990.965	8.60532
991.134	99.24826
991.304	50.75953
991.474	67.62381
991.644	4.39042
991.814	50.75953
991.984	-20.89695
992.153	54.97546
992.323	-10.36097
992.493	71.84011
992.662	23.35822
992.832	4.39042
993.002	50.75953
993.171	-63.03467
993.341	6.49786
993.511	92.92297
993.68	-27.21824
993.85	-41.96706
994.019	25.46587
994.189	21.25059
994.358	0.17561
994.528	52.86748
994.697	8.60532
994.867	82.38126
995.036	8.60532
995.206	38.11228
995.375	17.0354
995.544	40.22009
995.714	88.70622
995.883	33.89672
996.052	69.73195
996.222	97.13981
996.391	59.19149
996.56	12.82031
996.73	-4.03909
996.899	31.78897
997.068	-1.93175
997.237	-33.53931
997.406	33.89672
997.576	40.22009
997.745	31.78897
997.914	-18.7898
998.083	-37.75323
998.252	-16.68263
998.421	0.17561
998.59	59.19149
998.759	-8.2537
998.928	2.283
999.097	84.48956
999.266	-27.21824
999.435	59.19149
999.604	0.17561
999.773	-84.09974
999.942	-20.89695
1000.111	8.60532
1000.28	0.17561
1000.448	6.49786
1000.617	0.17561
1000.786	-52.50118
1000.955	-29.32529
1001.124	48.65159
1001.292	69.73195
1001.461	-27.21824
1001.63	4.39042
1001.798	76.05651
1001.967	33.89672
1002.136	78.16474
1002.304	42.32793
1002.473	27.57355
1002.642	-27.21824
1002.81	54.97546
1002.979	-20.89695
1003.147	-33.53931
1003.316	-1.93175
1003.484	-4.03909
1003.653	21.25059
1003.821	38.11228
1003.99	4.39042
1004.158	-23.00407
1004.327	25.46587
1004.495	21.25059
1004.663	54.97546
1004.832	42.32793
1005	145.63975
1005.168	12.82031
1005.337	88.70622
1005.505	-50.3944
1005.673	-16.68263
1005.842	54.97546
1006.01	48.65159
1006.178	21.25059
1006.346	33.89672
1006.514	-35.64629
1006.683	46.54368
1006.851	65.5157
1007.019	71.84011
1007.187	-20.89695
1007.355	-8.2537
1007.523	0.17561
1007.691	-18.7898
1007.859	-52.50118
1008.027	44.4358
1008.195	67.62381
1008.363	48.65159
1008.531	-37.75323
1008.699	29.68125
1008.867	25.46587
1009.035	103.46523
1009.203	-48.28761
1009.37	107.68229
1009.538	-27.21824
1009.706	-12.46822
1009.874	73.9483
1010.042	4.39042
1010.209	21.25059
1010.377	48.65159
1010.545	38.11228
1010.713	12.82031
1010.88	21.25059
1011.048	-4.03909
1011.216	46.54368
1011.383	46.54368
1011.551	-10.36097
1011.718	14.92785
1011.886	-12.46822
1012.054	25.46587
1012.221	88.70622
1012.389	54.97546
1012.556	23.35822
1012.724	38.11228
1012.891	-16.68263
1013.058	29.68125
1013.226	0.17561
1013.393	0.17561
1013.561	38.11228
1013.728	50.75953
1013.895	0.17561
1014.063	4.39042
1014.23	29.68125
1014.397	59.19149
1014.565	38.11228
1014.732	17.0354
1014.899	57.08346
1015.066	69.73195
1015.233	67.62381
1015.401	4.39042
1015.568	-33.53931
1015.735	-10.36097
1015.902	-33.53931
1016.069	31.78897
1016.236	36.00449
1016.403	21.25059
1016.57	8.60532
1016.737	12.82031
1016.904	33.89672
1017.071	33.89672
1017.238	21.25059
1017.405	14.92785
1017.572	-31.43231
1017.739	50.75953
1017.906	50.75953
1018.073	4.39042
1018.24	-18.7898
1018.407	-4.03909
1018.573	10.7128
1018.74	-25.11117
1018.907	14.92785
1019.074	71.84011
1019.241	-37.75323
1019.407	-6.14641
1019.574	48.65159
1019.741	50.75953
1019.907	-4.03909
1020.074	38.11228
1020.241	-16.68263
1020.407	54.97546
1020.574	40.22009
1020.74	-65.14129
1020.907	-16.68263
1021.073	139.31302
1021.24	-41.96706
1021.406	0.17561
1021.573	-14.57544
1021.739	23.35822
1021.906	23.35822
1022.072	21.25059
1022.239	52.86748
1022.405	46.54368
1022.571	-4.03909
1022.738	67.62381
1022.904	17.0354
1023.07	-4.03909
1023.237	-12.46822
1023.403	88.70622
1023.569	0.17561
1023.735	8.60532
1023.902	2.283
1024.068	4.39042
1024.234	-12.46822
1024.4	54.97546
1024.566	-84.09974
1024.732	29.68125
1024.898	23.35822
1025.065	40.22009
1025.231	4.39042
1025.397	40.22009
1025.563	-12.46822
1025.729	21.25059
1025.895	-54.60793
1026.061	-8.2537
1026.227	38.11228
1026.392	63.4076
1026.558	17.0354
1026.724	90.81458
1026.89	17.0354
1027.056	50.75953
1027.222	82.38126
1027.388	84.48956
1027.553	-20.89695
1027.719	63.4076
1027.885	61.29953
1028.051	-4.03909
1028.216	17.0354
1028.382	12.82031
1028.548	29.68125
1028.713	-33.53931
1028.879	21.25059
1029.045	67.62381
1029.21	12.82031
1029.376	54.97546
1029.541	42.32793
1029.707	46.54368
1029.873	4.39042
1030.038	29.68125
1030.204	25.46587
1030.369	50.75953
1030.534	25.46587
1030.7	-46.18078
1030.865	21.25059
1031.031	80.27299
1031.196	12.82031
1031.361	-8.2537
1031.527	-6.14641
1031.692	21.25059
1031.857	118.22533
1032.023	12.82031
1032.188	12.82031
1032.353	2.283
1032.518	-29.32529
1032.684	-48.28761
1032.849	-44.07393
1033.014	-41.96706
1033.179	6.49786
1033.344	50.75953
1033.509	8.60532
1033.674	-8.2537
1033.839	-1.93175
1034.004	4.39042
1034.17	-4.03909
1034.335	25.46587
1034.5	-20.89695
1034.664	25.46587
1034.829	46.54368
1034.994	-4.03909
1035.159	-1.93175
1035.324	67.62381
1035.489	6.49786
1035.654	52.86748
1035.819	63.4076
1035.984	0.17561
1036.148	23.35822
1036.313	-4.03909
1036.478	-6.14641
1036.643	0.17561
1036.807	4.39042
1036.972	67.62381
1037.137	-4.03909
1037.301	-12.46822
1037.466	52.86748
1037.631	33.89672
1037.795	-1.93175
1037.96	111.89944
1038.124	-37.75323
1038.289	33.89672
1038.454	6.49786
1038.618	54.97546
1038.783	40.22009
1038.947	10.7128
1039.111	63.4076
1039.276	-18.7898
1039.44	12.82031
1039.605	12.82031
1039.769	-20.89695
1039.933	-4.03909
1040.098	4.39042
1040.262	48.65159
1040.426	29.68125
1040.591	38.11228
1040.755	0.17561
1040.919	63.4076
1041.083	-8.2537
1041.248	-54.60793
1041.412	-1.93175
1041.576	-56.71465
1041.74	12.82031
1041.904	57.08346
1042.068	-46.18078
1042.232	29.68125
1042.397	12.82031
1042.561	29.68125
1042.725	-16.68263
1042.889	29.68125
1043.053	-27.21824
1043.217	-23.00407
1043.381	33.89672
1043.544	33.89672
1043.708	-29.32529
1043.872	40.22009
1044.036	42.32793
1044.2	23.35822
1044.364	8.60532
1044.528	19.14299
1044.691	54.97546
1044.855	-10.36097
1045.019	63.4076
1045.183	76.05651
1045.346	12.82031
1045.51	42.32793
1045.674	57.08346
1045.837	44.4358
1046.001	-8.2537
1046.165	8.60532
1046.328	-8.2537
1046.492	67.62381
1046.655	-31.43231
1046.819	14.92785
1046.983	38.11228
1047.146	-25.11117
1047.31	-20.89695
1047.473	36.00449
1047.636	29.68125
1047.8	0.17561
1047.963	92.92297
1048.127	14.92785
1048.29	-25.11117
