Data from Scatter_Coeff_Baseline_USB4F045381__18__0018.txt Node

Date: Thu Feb 13 19:19:06 EST 2025
User: mmckonesweet
Spectrometer: USB4F04538
Trigger mode: 4
Integration Time (sec): 2.400000E-3
Scans to average: 1
Electric dark correction enabled: true
Nonlinearity correction enabled: true
Boxcar width: 0
XAxis mode: Wavelengths
Number of Pixels in Spectrum: 3648
>>>>>Begin Spectral Data<<<<<
345.52	44.4358
345.736	44.4358
345.952	44.4358
346.168	-37.75323
346.384	-75.67402
346.6	50.75953
346.816	33.89672
347.032	-41.96706
347.248	-20.89695
347.464	-25.11117
347.68	25.46587
347.896	4.39042
348.112	-6.14641
348.328	-58.82135
348.544	44.4358
348.76	-16.68263
348.975	10.7128
349.191	0.17561
349.407	8.60532
349.623	-54.60793
349.839	-37.75323
350.055	-29.32529
350.27	50.75953
350.486	-46.18078
350.702	25.46587
350.918	0.17561
351.133	-37.75323
351.349	17.0354
351.565	36.00449
351.781	46.54368
351.996	12.82031
352.212	44.4358
352.428	2.283
352.644	-37.75323
352.859	12.82031
353.075	50.75953
353.291	-44.07393
353.506	50.75953
353.722	-16.68263
353.938	33.89672
354.153	33.89672
354.369	-12.46822
354.584	19.14299
354.8	-16.68263
355.016	38.11228
355.231	19.14299
355.447	29.68125
355.662	-31.43231
355.878	17.0354
356.093	8.60532
356.309	-1.93175
356.524	40.22009
356.74	-12.46822
356.955	-18.7898
357.171	8.60532
357.386	-8.2537
357.602	76.05651
357.817	-25.11117
358.033	105.57375
358.248	-20.89695
358.464	-25.11117
358.679	-18.7898
358.895	-58.82135
359.11	-20.89695
359.325	40.22009
359.541	4.39042
359.756	42.32793
359.972	-48.28761
360.187	27.57355
360.402	17.0354
360.618	-29.32529
360.833	12.82031
361.048	-8.2537
361.264	42.32793
361.479	-69.35446
361.694	27.57355
361.909	19.14299
362.125	-48.28761
362.34	46.54368
362.555	-31.43231
362.77	0.17561
362.986	0.17561
363.201	46.54368
363.416	-48.28761
363.631	-33.53931
363.847	27.57355
364.062	14.92785
364.277	-4.03909
364.492	-6.14641
364.707	8.60532
364.922	-29.32529
365.138	4.39042
365.353	4.39042
365.568	6.49786
365.783	-23.00407
365.998	-37.75323
366.213	-16.68263
366.428	-39.86016
366.643	-4.03909
366.858	-52.50118
367.073	17.0354
367.288	-8.2537
367.503	65.5157
367.718	25.46587
367.933	-4.03909
368.148	-56.71465
368.363	-31.43231
368.578	-29.32529
368.793	8.60532
369.008	25.46587
369.223	19.14299
369.438	21.25059
369.653	2.283
369.868	-73.56752
370.083	-37.75323
370.298	17.0354
370.513	-39.86016
370.728	-23.00407
370.943	8.60532
371.157	8.60532
371.372	-6.14641
371.587	-27.21824
371.802	-16.68263
372.017	31.78897
372.232	42.32793
372.446	-8.2537
372.661	-98.84375
372.876	17.0354
373.091	-16.68263
373.306	-25.11117
373.52	-39.86016
373.735	48.65159
373.95	-50.3944
374.165	50.75953
374.379	44.4358
374.594	29.68125
374.809	27.57355
375.023	-18.7898
375.238	-8.2537
375.453	-33.53931
375.667	46.54368
375.882	10.7128
376.097	71.84011
376.311	-86.2061
376.526	-1.93175
376.741	31.78897
376.955	42.32793
377.17	12.82031
377.384	-20.89695
377.599	33.89672
377.813	-23.00407
378.028	59.19149
378.242	59.19149
378.457	-16.68263
378.672	-48.28761
378.886	27.57355
379.101	40.22009
379.315	12.82031
379.53	6.49786
379.744	-75.67402
379.958	-50.3944
380.173	-29.32529
380.387	-48.28761
380.602	67.62381
380.816	-14.57544
381.031	-37.75323
381.245	21.25059
381.459	-50.3944
381.674	-23.00407
381.888	10.7128
382.103	21.25059
382.317	8.60532
382.531	8.60532
382.746	-14.57544
382.96	92.92297
383.174	23.35822
383.388	19.14299
383.603	-25.11117
383.817	36.00449
384.031	-39.86016
384.246	33.89672
384.46	-33.53931
384.674	0.17561
384.888	54.97546
385.103	90.81458
385.317	-12.46822
385.531	73.9483
385.745	-103.05609
385.959	-14.57544
386.174	54.97546
386.388	80.27299
386.602	-145.17365
386.816	-31.43231
387.03	48.65159
387.244	36.00449
387.458	14.92785
387.672	4.39042
387.887	46.54368
388.101	46.54368
388.315	-14.57544
388.529	-14.57544
388.743	14.92785
388.957	-14.57544
389.171	48.65159
389.385	44.4358
389.599	17.0354
389.813	-23.00407
390.027	33.89672
390.241	17.0354
390.455	25.46587
390.669	31.78897
390.883	-16.68263
391.097	46.54368
391.311	27.57355
391.525	25.46587
391.738	-14.57544
391.952	65.5157
392.166	-67.24789
392.38	21.25059
392.594	-4.03909
392.808	21.25059
393.022	63.4076
393.236	-6.14641
393.449	-27.21824
393.663	25.46587
393.877	-8.2537
394.091	2.283
394.305	76.05651
394.518	-4.03909
394.732	-81.99334
394.946	33.89672
395.16	42.32793
395.373	-31.43231
395.587	71.84011
395.801	-25.11117
396.015	42.32793
396.228	57.08346
396.442	-14.57544
396.656	36.00449
396.869	-8.2537
397.083	19.14299
397.297	-12.46822
397.51	-29.32529
397.724	-48.28761
397.938	2.283
398.151	-18.7898
398.365	17.0354
398.578	31.78897
398.792	-25.11117
399.005	4.39042
399.219	-39.86016
399.433	-4.03909
399.646	4.39042
399.86	-35.64629
400.073	4.39042
400.287	12.82031
400.5	-65.14129
400.714	-65.14129
400.927	-12.46822
401.141	-58.82135
401.354	-16.68263
401.567	21.25059
401.781	8.60532
401.994	-44.07393
402.208	44.4358
402.421	-44.07393
402.635	54.97546
402.848	-39.86016
403.061	8.60532
403.275	0.17561
403.488	10.7128
403.701	17.0354
403.915	-16.68263
404.128	0.17561
404.341	71.84011
404.555	-8.2537
404.768	-12.46822
404.981	25.46587
405.195	17.0354
405.408	-23.00407
405.621	-54.60793
405.834	-10.36097
406.048	38.11228
406.261	-4.03909
406.474	12.82031
406.687	-44.07393
406.9	8.60532
407.114	-25.11117
407.327	-37.75323
407.54	-20.89695
407.753	40.22009
407.966	61.29953
408.179	0.17561
408.392	63.4076
408.605	92.92297
408.819	-50.3944
409.032	-1.93175
409.245	-20.89695
409.458	4.39042
409.671	0.17561
409.884	10.7128
410.097	107.68229
410.31	0.17561
410.523	-16.68263
410.736	-48.28761
410.949	42.32793
411.162	4.39042
411.375	33.89672
411.588	17.0354
411.801	29.68125
412.014	-8.2537
412.227	-33.53931
412.44	-1.93175
412.653	6.49786
412.865	-14.57544
413.078	-1.93175
413.291	27.57355
413.504	8.60532
413.717	36.00449
413.93	-29.32529
414.143	-14.57544
414.356	-4.03909
414.568	-60.92802
414.781	-18.7898
414.994	-75.67402
415.207	-18.7898
415.42	27.57355
415.632	-33.53931
415.845	-6.14641
416.058	12.82031
416.271	-18.7898
416.483	23.35822
416.696	31.78897
416.909	-44.07393
417.121	2.283
417.334	38.11228
417.547	19.14299
417.759	59.19149
417.972	-58.82135
418.185	-37.75323
418.397	50.75953
418.61	-67.24789
418.823	6.49786
419.035	8.60532
419.248	4.39042
419.46	-37.75323
419.673	-52.50118
419.885	-44.07393
420.098	-12.46822
420.311	-46.18078
420.523	-10.36097
420.736	-37.75323
420.948	42.32793
421.161	-23.00407
421.373	10.7128
421.586	-27.21824
421.798	-6.14641
422.01	2.283
422.223	-25.11117
422.435	-12.46822
422.648	-29.32529
422.86	8.60532
423.073	-8.2537
423.285	6.49786
423.497	-50.3944
423.71	42.32793
423.922	-8.2537
424.134	42.32793
424.347	-50.3944
424.559	-94.6313
424.771	-1.93175
424.984	8.60532
425.196	25.46587
425.408	25.46587
425.621	-56.71465
425.833	-16.68263
426.045	38.11228
426.257	0.17561
426.47	0.17561
426.682	14.92785
426.894	-37.75323
427.106	-8.2537
427.318	-33.53931
427.531	6.49786
427.743	-8.2537
427.955	40.22009
428.167	-29.32529
428.379	0.17561
428.591	-35.64629
428.804	-20.89695
429.016	-48.28761
429.228	-37.75323
429.44	12.82031
429.652	-46.18078
429.864	69.73195
430.076	19.14299
430.288	-81.99334
430.5	40.22009
430.712	10.7128
430.924	-10.36097
431.136	8.60532
431.348	8.60532
431.56	59.19149
431.772	-14.57544
431.984	-50.3944
432.196	12.82031
432.408	0.17561
432.62	-12.46822
432.832	-46.18078
433.044	19.14299
433.256	8.60532
433.468	19.14299
433.679	4.39042
433.891	4.39042
434.103	17.0354
434.315	-77.78048
434.527	69.73195
434.739	40.22009
434.95	10.7128
435.162	-16.68263
435.374	25.46587
435.586	-29.32529
435.798	8.60532
436.009	-8.2537
436.221	14.92785
436.433	-29.32529
436.645	42.32793
436.856	-50.3944
437.068	8.60532
437.28	-41.96706
437.491	46.54368
437.703	-14.57544
437.915	-39.86016
438.126	14.92785
438.338	-16.68263
438.55	38.11228
438.761	-8.2537
438.973	-75.67402
439.184	-33.53931
439.396	0.17561
439.608	-12.46822
439.819	-37.75323
440.031	-69.35446
440.242	14.92785
440.454	-4.03909
440.665	-31.43231
440.877	27.57355
441.088	-18.7898
441.3	-6.14641
441.511	-14.57544
441.723	42.32793
441.934	33.89672
442.146	84.48956
442.357	21.25059
442.569	29.68125
442.78	-67.24789
442.991	2.283
443.203	52.86748
443.414	12.82031
443.626	-18.7898
443.837	-16.68263
444.048	42.32793
444.26	10.7128
444.471	-37.75323
444.682	36.00449
444.894	-4.03909
445.105	-25.11117
445.316	36.00449
445.528	-16.68263
445.739	-6.14641
445.95	27.57355
446.161	-41.96706
446.373	10.7128
446.584	-18.7898
446.795	27.57355
447.006	19.14299
447.217	-65.14129
447.429	-12.46822
447.64	38.11228
447.851	0.17561
448.062	0.17561
448.273	38.11228
448.484	44.4358
448.695	-10.36097
448.907	73.9483
449.118	17.0354
449.329	48.65159
449.54	-18.7898
449.751	36.00449
449.962	-16.68263
450.173	-10.36097
450.384	17.0354
450.595	0.17561
450.806	-37.75323
451.017	84.48956
451.228	122.44269
451.439	25.46587
451.65	4.39042
451.861	-6.14641
452.072	42.32793
452.283	44.4358
452.494	-31.43231
452.705	78.16474
452.915	2.283
453.126	25.46587
453.337	0.17561
453.548	-8.2537
453.759	-18.7898
453.97	14.92785
454.181	6.49786
454.391	42.32793
454.602	-31.43231
454.813	4.39042
455.024	65.5157
455.235	4.39042
455.445	25.46587
455.656	12.82031
455.867	-48.28761
456.078	-44.07393
456.288	40.22009
456.499	-65.14129
456.71	-20.89695
456.921	36.00449
457.131	-33.53931
457.342	92.92297
457.553	-29.32529
457.763	-6.14641
457.974	33.89672
458.184	-48.28761
458.395	-41.96706
458.606	6.49786
458.816	8.60532
459.027	-75.67402
459.237	-41.96706
459.448	-58.82135
459.659	10.7128
459.869	-6.14641
460.08	-25.11117
460.29	-41.96706
460.501	-16.68263
460.711	0.17561
460.922	-63.03467
461.132	2.283
461.343	44.4358
461.553	23.35822
461.764	-4.03909
461.974	-4.03909
462.184	-58.82135
462.395	67.62381
462.605	2.283
462.816	-4.03909
463.026	19.14299
463.236	76.05651
463.447	36.00449
463.657	-29.32529
463.867	-25.11117
464.078	6.49786
464.288	0.17561
464.498	-8.2537
464.709	8.60532
464.919	2.283
465.129	-12.46822
465.339	52.86748
465.55	42.32793
465.76	29.68125
465.97	-6.14641
466.18	-29.32529
466.391	-4.03909
466.601	54.97546
466.811	0.17561
467.021	8.60532
467.231	-29.32529
467.441	12.82031
467.651	40.22009
467.862	21.25059
468.072	31.78897
468.282	38.11228
468.492	19.14299
468.702	57.08346
468.912	38.11228
469.122	8.60532
469.332	46.54368
469.542	14.92785
469.752	2.283
469.962	33.89672
470.172	2.283
470.382	-12.46822
470.592	-8.2537
470.802	17.0354
471.012	-12.46822
471.222	48.65159
471.432	-4.03909
471.642	76.05651
471.852	-41.96706
472.062	-50.3944
472.272	-12.46822
472.482	17.0354
472.691	-12.46822
472.901	8.60532
473.111	-56.71465
473.321	40.22009
473.531	67.62381
473.741	23.35822
473.95	29.68125
474.16	-81.99334
474.37	-71.461
474.58	50.75953
474.79	23.35822
474.999	-10.36097
475.209	17.0354
475.419	33.89672
475.628	23.35822
475.838	40.22009
476.048	33.89672
476.258	-16.68263
476.467	76.05651
476.677	80.27299
476.886	-14.57544
477.096	95.03138
477.306	-1.93175
477.515	17.0354
477.725	-56.71465
477.935	-52.50118
478.144	-37.75323
478.354	21.25059
478.563	0.17561
478.773	17.0354
478.982	-25.11117
479.192	36.00449
479.401	-14.57544
479.611	-4.03909
479.82	36.00449
480.03	-4.03909
480.239	33.89672
480.449	25.46587
480.658	-16.68263
480.868	-31.43231
481.077	46.54368
481.287	48.65159
481.496	84.48956
481.705	-39.86016
481.915	-23.00407
482.124	76.05651
482.333	-10.36097
482.543	-14.57544
482.752	-16.68263
482.961	50.75953
483.171	63.4076
483.38	-23.00407
483.589	19.14299
483.799	-8.2537
484.008	17.0354
484.217	29.68125
484.426	0.17561
484.636	4.39042
484.845	4.39042
485.054	52.86748
485.263	-12.46822
485.472	0.17561
485.682	27.57355
485.891	-48.28761
486.1	4.39042
486.309	29.68125
486.518	-96.73754
486.727	44.4358
486.936	50.75953
487.146	-12.46822
487.355	23.35822
487.564	-41.96706
487.773	0.17561
487.982	0.17561
488.191	48.65159
488.4	0.17561
488.609	27.57355
488.818	17.0354
489.027	-25.11117
489.236	52.86748
489.445	82.38126
489.654	12.82031
489.863	71.84011
490.072	-50.3944
490.281	8.60532
490.49	12.82031
490.698	63.4076
490.907	-8.2537
491.116	21.25059
491.325	-25.11117
491.534	4.39042
491.743	23.35822
491.952	-88.31244
492.16	25.46587
492.369	4.39042
492.578	42.32793
492.787	-31.43231
492.996	10.7128
493.204	2.283
493.413	-77.78048
493.622	-12.46822
493.831	71.84011
494.039	59.19149
494.248	-52.50118
494.457	-58.82135
494.665	-8.2537
494.874	25.46587
495.083	17.0354
495.291	44.4358
495.5	-8.2537
495.709	29.68125
495.917	-67.24789
496.126	-75.67402
496.335	21.25059
496.543	59.19149
496.752	-25.11117
496.96	69.73195
497.169	-16.68263
497.377	-29.32529
497.586	27.57355
497.794	31.78897
498.003	-50.3944
498.211	-48.28761
498.42	8.60532
498.628	50.75953
498.837	44.4358
499.045	4.39042
499.254	54.97546
499.462	-16.68263
499.671	33.89672
499.879	46.54368
500.087	17.0354
500.296	6.49786
500.504	25.46587
500.713	-67.24789
500.921	-31.43231
501.129	-37.75323
501.338	42.32793
501.546	-27.21824
501.754	-75.67402
501.962	50.75953
502.171	40.22009
502.379	-44.07393
502.587	-29.32529
502.795	48.65159
503.004	97.13981
503.212	8.60532
503.42	14.92785
503.628	12.82031
503.837	0.17561
504.045	-18.7898
504.253	-12.46822
504.461	-56.71465
504.669	-46.18078
504.877	50.75953
505.085	46.54368
505.294	29.68125
505.502	-4.03909
505.71	2.283
505.918	42.32793
506.126	-41.96706
506.334	-8.2537
506.542	14.92785
506.75	78.16474
506.958	42.32793
507.166	-14.57544
507.374	21.25059
507.582	-63.03467
507.79	-1.93175
507.998	-6.14641
508.206	-33.53931
508.414	-14.57544
508.622	38.11228
508.83	-65.14129
509.037	-37.75323
509.245	12.82031
509.453	-12.46822
509.661	-25.11117
509.869	-52.50118
510.077	8.60532
510.285	-25.11117
510.492	-6.14641
510.7	-18.7898
510.908	46.54368
511.116	25.46587
511.324	-12.46822
511.531	21.25059
511.739	-41.96706
511.947	-39.86016
512.155	38.11228
512.362	-75.67402
512.57	0.17561
512.778	-12.46822
512.985	-84.09974
513.193	-25.11117
513.401	-29.32529
513.608	38.11228
513.816	29.68125
514.024	29.68125
514.231	48.65159
514.439	-25.11117
514.646	25.46587
514.854	36.00449
515.061	-33.53931
515.269	0.17561
515.477	25.46587
515.684	21.25059
515.892	-54.60793
516.099	4.39042
516.307	-33.53931
516.514	59.19149
516.722	44.4358
516.929	29.68125
517.136	-4.03909
517.344	33.89672
517.551	0.17561
517.759	-63.03467
517.966	54.97546
518.173	38.11228
518.381	0.17561
518.588	114.00805
518.796	12.82031
519.003	38.11228
519.21	46.54368
519.418	-29.32529
519.625	2.283
519.832	61.29953
520.039	2.283
520.247	-81.99334
520.454	38.11228
520.661	0.17561
520.868	-6.14641
521.076	-12.46822
521.283	-37.75323
521.49	29.68125
521.697	17.0354
521.904	-67.24789
522.112	36.00449
522.319	25.46587
522.526	90.81458
522.733	-98.84375
522.94	17.0354
523.147	-35.64629
523.354	25.46587
523.561	-1.93175
523.768	-23.00407
523.975	17.0354
524.183	-6.14641
524.39	-1.93175
524.597	-56.71465
524.804	-14.57544
525.011	-4.03909
525.218	-20.89695
525.425	-41.96706
525.632	0.17561
525.838	-16.68263
526.045	-18.7898
526.252	8.60532
526.459	-16.68263
526.666	42.32793
526.873	17.0354
527.08	88.70622
527.287	0.17561
527.494	17.0354
527.701	-41.96706
527.907	-4.03909
528.114	17.0354
528.321	2.283
528.528	-37.75323
528.735	-20.89695
528.941	-54.60793
529.148	8.60532
529.355	-20.89695
529.562	25.46587
529.768	-29.32529
529.975	73.9483
530.182	-48.28761
530.388	29.68125
530.595	10.7128
530.802	0.17561
531.008	-27.21824
531.215	-8.2537
531.422	-20.89695
531.628	-27.21824
531.835	-16.68263
532.042	50.75953
532.248	-18.7898
532.455	-1.93175
532.661	-20.89695
532.868	14.92785
533.074	4.39042
533.281	25.46587
533.487	-8.2537
533.694	50.75953
533.9	-48.28761
534.107	12.82031
534.313	86.59788
534.52	-4.03909
534.726	-16.68263
534.933	-37.75323
535.139	2.283
535.345	-12.46822
535.552	17.0354
535.758	-16.68263
535.965	-4.03909
536.171	-33.53931
536.377	-41.96706
536.584	12.82031
536.79	-73.56752
536.996	-10.36097
537.203	-73.56752
537.409	2.283
537.615	95.03138
537.821	-18.7898
538.028	-12.46822
538.234	46.54368
538.44	-27.21824
538.646	-44.07393
538.853	-8.2537
539.059	33.89672
539.265	0.17561
539.471	25.46587
539.677	50.75953
539.883	-14.57544
540.09	17.0354
540.296	-10.36097
540.502	-63.03467
540.708	38.11228
540.914	33.89672
541.12	42.32793
541.326	-23.00407
541.532	36.00449
541.738	-44.07393
541.944	8.60532
542.15	-20.89695
542.356	33.89672
542.562	-8.2537
542.768	10.7128
542.974	-25.11117
543.18	-25.11117
543.386	-31.43231
543.592	2.283
543.798	-25.11117
544.004	-37.75323
544.21	-41.96706
544.415	33.89672
544.621	-12.46822
544.827	0.17561
545.033	-23.00407
545.239	-37.75323
545.445	38.11228
545.651	27.57355
545.856	-39.86016
546.062	-25.11117
546.268	-25.11117
546.474	21.25059
546.679	-56.71465
546.885	-27.21824
547.091	10.7128
547.297	-65.14129
547.502	44.4358
547.708	-67.24789
547.914	-4.03909
548.119	63.4076
548.325	-46.18078
548.531	78.16474
548.736	-58.82135
548.942	2.283
549.147	8.60532
549.353	0.17561
549.559	-63.03467
549.764	25.46587
549.97	-6.14641
550.175	-33.53931
550.381	23.35822
550.586	21.25059
550.792	29.68125
550.997	42.32793
551.203	-23.00407
551.408	12.82031
551.614	-12.46822
551.819	19.14299
552.025	-50.3944
552.23	17.0354
552.435	-20.89695
552.641	-25.11117
552.846	23.35822
553.052	82.38126
553.257	-33.53931
553.462	-46.18078
553.668	-48.28761
553.873	88.70622
554.078	-56.71465
554.283	38.11228
554.489	88.70622
554.694	-81.99334
554.899	12.82031
555.105	-46.18078
555.31	-23.00407
555.515	8.60532
555.72	-50.3944
555.925	27.57355
556.131	-81.99334
556.336	17.0354
556.541	27.57355
556.746	84.48956
556.951	12.82031
557.156	-50.3944
557.361	8.60532
557.567	103.46523
557.772	17.0354
557.977	8.60532
558.182	2.283
558.387	-18.7898
558.592	-96.73754
558.797	14.92785
559.002	48.65159
559.207	-54.60793
559.412	-18.7898
559.617	12.82031
559.822	-41.96706
560.027	-60.92802
560.232	2.283
560.437	0.17561
560.642	-8.2537
560.847	33.89672
561.051	50.75953
561.256	-4.03909
561.461	2.283
561.666	-48.28761
561.871	29.68125
562.076	8.60532
562.281	-48.28761
562.485	33.89672
562.69	6.49786
562.895	-1.93175
563.1	-29.32529
563.305	36.00449
563.509	-33.53931
563.714	-10.36097
563.919	-1.93175
564.123	-23.00407
564.328	46.54368
564.533	14.92785
564.737	-8.2537
564.942	10.7128
565.147	27.57355
565.351	-14.57544
565.556	21.25059
565.761	0.17561
565.965	88.70622
566.17	-6.14641
566.374	-39.86016
566.579	25.46587
566.784	-29.32529
566.988	-52.50118
567.193	-27.21824
567.397	-39.86016
567.602	8.60532
567.806	-25.11117
568.011	0.17561
568.215	27.57355
568.42	-52.50118
568.624	54.97546
568.828	8.60532
569.033	-27.21824
569.237	-33.53931
569.442	-33.53931
569.646	31.78897
569.85	29.68125
570.055	-1.93175
570.259	-71.461
570.463	8.60532
570.668	25.46587
570.872	-6.14641
571.076	44.4358
571.281	-50.3944
571.485	12.82031
571.689	21.25059
571.893	48.65159
572.098	4.39042
572.302	-8.2537
572.506	36.00449
572.71	-33.53931
572.914	-23.00407
573.119	-12.46822
573.323	-16.68263
573.527	57.08346
573.731	6.49786
573.935	-41.96706
574.139	-12.46822
574.343	29.68125
574.547	36.00449
574.751	-44.07393
574.955	-18.7898
575.159	-63.03467
575.364	-12.46822
575.568	-1.93175
575.772	-6.14641
575.976	27.57355
576.18	-41.96706
576.383	48.65159
576.587	8.60532
576.791	-23.00407
576.995	-4.03909
577.199	-1.93175
577.403	-29.32529
577.607	33.89672
577.811	63.4076
578.015	46.54368
578.219	14.92785
578.422	-67.24789
578.626	0.17561
578.83	21.25059
579.034	-27.21824
579.238	-16.68263
579.442	-29.32529
579.645	-50.3944
579.849	33.89672
580.053	-16.68263
580.257	-37.75323
580.46	-10.36097
580.664	0.17561
580.868	33.89672
581.071	33.89672
581.275	-23.00407
581.479	-14.57544
581.682	-12.46822
581.886	-8.2537
582.09	-63.03467
582.293	-20.89695
582.497	-63.03467
582.7	-81.99334
582.904	-1.93175
583.107	-29.32529
583.311	-23.00407
583.515	-18.7898
583.718	14.92785
583.922	-54.60793
584.125	8.60532
584.329	59.19149
584.532	57.08346
584.735	-37.75323
584.939	17.0354
585.142	52.86748
585.346	-46.18078
585.549	6.49786
585.753	80.27299
585.956	29.68125
586.159	92.92297
586.363	-124.1162
586.566	14.92785
586.769	0.17561
586.973	-90.41875
587.176	-6.14641
587.379	42.32793
587.582	38.11228
587.786	8.60532
587.989	69.73195
588.192	-16.68263
588.395	-84.09974
588.599	46.54368
588.802	29.68125
589.005	-23.00407
589.208	-20.89695
589.411	12.82031
589.615	54.97546
589.818	57.08346
590.021	46.54368
590.224	44.4358
590.427	-4.03909
590.63	-63.03467
590.833	-23.00407
591.036	8.60532
591.239	-37.75323
591.442	4.39042
591.645	8.60532
591.848	33.89672
592.051	-52.50118
592.254	8.60532
592.457	-33.53931
592.66	42.32793
592.863	-23.00407
593.066	-44.07393
593.269	36.00449
593.472	40.22009
593.675	33.89672
593.878	-23.00407
594.081	38.11228
594.284	25.46587
594.486	-16.68263
594.689	12.82031
594.892	21.25059
595.095	12.82031
595.298	25.46587
595.5	-14.57544
595.703	-23.00407
595.906	67.62381
596.109	-14.57544
596.311	-130.43372
596.514	-79.88693
596.717	-39.86016
596.92	2.283
597.122	0.17561
597.325	14.92785
597.528	42.32793
597.73	-1.93175
597.933	63.4076
598.136	-8.2537
598.338	-52.50118
598.541	-8.2537
598.743	38.11228
598.946	-12.46822
599.148	-16.68263
599.351	50.75953
599.554	-23.00407
599.756	50.75953
599.959	-16.68263
600.161	8.60532
600.363	63.4076
600.566	38.11228
600.768	46.54368
600.971	-12.46822
601.173	-27.21824
601.376	29.68125
601.578	-12.46822
601.78	0.17561
601.983	-18.7898
602.185	-20.89695
602.388	71.84011
602.59	27.57355
602.792	57.08346
602.995	-31.43231
603.197	-23.00407
603.399	-31.43231
603.601	99.24826
603.804	25.46587
604.006	50.75953
604.208	2.283
604.41	46.54368
604.613	17.0354
604.815	38.11228
605.017	-37.75323
605.219	12.82031
605.421	67.62381
605.623	8.60532
605.826	-29.32529
606.028	-67.24789
606.23	-46.18078
606.432	29.68125
606.634	44.4358
606.836	-6.14641
607.038	-29.32529
607.24	-25.11117
607.442	27.57355
607.644	-12.46822
607.846	-54.60793
608.048	-31.43231
608.25	-86.2061
608.452	31.78897
608.654	-31.43231
608.856	-58.82135
609.058	33.89672
609.26	19.14299
609.462	-14.57544
609.664	17.0354
609.866	-52.50118
610.067	-16.68263
610.269	-56.71465
610.471	-23.00407
610.673	-4.03909
610.875	-25.11117
611.077	12.82031
611.278	12.82031
611.48	67.62381
611.682	-18.7898
611.884	31.78897
612.085	-37.75323
612.287	6.49786
612.489	17.0354
612.69	-8.2537
612.892	31.78897
613.094	12.82031
613.295	-20.89695
613.497	-6.14641
613.699	50.75953
613.9	-20.89695
614.102	31.78897
614.304	8.60532
614.505	-23.00407
614.707	-8.2537
614.908	19.14299
615.11	17.0354
615.311	25.46587
615.513	-50.3944
615.714	17.0354
615.916	63.4076
616.117	4.39042
616.319	-12.46822
616.52	44.4358
616.722	25.46587
616.923	40.22009
617.124	-10.36097
617.326	42.32793
617.527	-50.3944
617.729	-16.68263
617.93	-60.92802
618.131	-1.93175
618.333	-6.14641
618.534	-14.57544
618.735	-50.3944
618.937	-23.00407
619.138	0.17561
619.339	-39.86016
619.54	0.17561
619.742	6.49786
619.943	-16.68263
620.144	-16.68263
620.345	17.0354
620.546	2.283
620.748	38.11228
620.949	69.73195
621.15	-46.18078
621.351	25.46587
621.552	25.46587
621.753	-46.18078
621.954	10.7128
622.155	-8.2537
622.356	21.25059
622.558	25.46587
622.759	12.82031
622.96	27.57355
623.161	44.4358
623.362	33.89672
623.563	-77.78048
623.764	17.0354
623.965	42.32793
624.166	42.32793
624.366	2.283
624.567	-33.53931
624.768	2.283
624.969	6.49786
625.17	14.92785
625.371	0.17561
625.572	-4.03909
625.773	-37.75323
625.973	10.7128
626.174	44.4358
626.375	8.60532
626.576	-48.28761
626.777	-60.92802
626.977	19.14299
627.178	-8.2537
627.379	-58.82135
627.58	10.7128
627.78	42.32793
627.981	-41.96706
628.182	29.68125
628.382	38.11228
628.583	-23.00407
628.784	-73.56752
628.984	2.283
629.185	-1.93175
629.386	-31.43231
629.586	31.78897
629.787	-16.68263
629.987	33.89672
630.188	12.82031
630.388	-37.75323
630.589	-31.43231
630.79	-16.68263
630.99	-33.53931
631.191	-1.93175
631.391	17.0354
631.591	0.17561
631.792	-31.43231
631.992	33.89672
632.193	46.54368
632.393	17.0354
632.594	-44.07393
632.794	-31.43231
632.994	-14.57544
633.195	-69.35446
633.395	67.62381
633.595	46.54368
633.796	92.92297
633.996	21.25059
634.196	-31.43231
634.397	-48.28761
634.597	-25.11117
634.797	-16.68263
634.997	12.82031
635.198	-10.36097
635.398	-31.43231
635.598	-8.2537
635.798	0.17561
635.998	36.00449
636.199	57.08346
636.399	21.25059
636.599	17.0354
636.799	-27.21824
636.999	52.86748
637.199	-56.71465
637.399	-6.14641
637.599	-33.53931
637.799	4.39042
637.999	-81.99334
638.199	4.39042
638.399	46.54368
638.599	-25.11117
638.799	52.86748
638.999	78.16474
639.199	33.89672
639.399	36.00449
639.599	-25.11117
639.799	0.17561
639.999	-84.09974
640.199	12.82031
640.399	-31.43231
640.599	-6.14641
640.799	65.5157
640.998	0.17561
641.198	-4.03909
641.398	-63.03467
641.598	-4.03909
641.798	-29.32529
641.997	4.39042
642.197	-14.57544
642.397	-39.86016
642.597	-31.43231
642.796	-27.21824
642.996	25.46587
643.196	25.46587
643.395	-46.18078
643.595	-33.53931
643.795	109.79086
643.994	25.46587
644.194	29.68125
644.394	-41.96706
644.593	-29.32529
644.793	69.73195
644.992	0.17561
645.192	17.0354
645.392	-8.2537
645.591	19.14299
645.791	-1.93175
645.99	-58.82135
646.19	-37.75323
646.389	-48.28761
646.589	-6.14641
646.788	8.60532
646.987	-39.86016
647.187	25.46587
647.386	2.283
647.586	33.89672
647.785	0.17561
647.984	38.11228
648.184	19.14299
648.383	10.7128
648.582	-29.32529
648.782	-12.46822
648.981	4.39042
649.18	12.82031
649.38	27.57355
649.579	-33.53931
649.778	25.46587
649.977	-20.89695
650.177	8.60532
650.376	69.73195
650.575	-16.68263
650.774	42.32793
650.973	21.25059
651.173	-1.93175
651.372	-58.82135
651.571	36.00449
651.77	21.25059
651.969	10.7128
652.168	-75.67402
652.367	50.75953
652.566	-4.03909
652.765	-18.7898
652.964	-14.57544
653.163	2.283
653.362	59.19149
653.561	29.68125
653.76	33.89672
653.959	10.7128
654.158	-41.96706
654.357	-8.2537
654.556	17.0354
654.755	-92.52504
654.954	12.82031
655.153	-58.82135
655.352	54.97546
655.551	36.00449
655.749	33.89672
655.948	2.283
656.147	-8.2537
656.346	2.283
656.545	8.60532
656.743	-6.14641
656.942	46.54368
657.141	-8.2537
657.34	36.00449
657.538	-12.46822
657.737	52.86748
657.936	-41.96706
658.135	-20.89695
658.333	-8.2537
658.532	50.75953
658.731	-54.60793
658.929	4.39042
659.128	38.11228
659.326	23.35822
659.525	44.4358
659.724	-16.68263
659.922	-46.18078
660.121	76.05651
660.319	-8.2537
660.518	-50.3944
660.716	-48.28761
660.915	29.68125
661.113	25.46587
661.312	44.4358
661.51	-100.94993
661.709	0.17561
661.907	10.7128
662.105	92.92297
662.304	25.46587
662.502	-29.32529
662.701	12.82031
662.899	12.82031
663.097	29.68125
663.296	8.60532
663.494	38.11228
663.692	-8.2537
663.891	2.283
664.089	-54.60793
664.287	-33.53931
664.485	6.49786
664.684	-25.11117
664.882	8.60532
665.08	54.97546
665.278	0.17561
665.476	54.97546
665.675	-12.46822
665.873	8.60532
666.071	-41.96706
666.269	-12.46822
666.467	44.4358
666.665	-23.00407
666.863	2.283
667.061	31.78897
667.259	-18.7898
667.457	25.46587
667.655	-65.14129
667.853	-8.2537
668.051	-33.53931
668.249	-18.7898
668.447	12.82031
668.645	-8.2537
668.843	-1.93175
669.041	36.00449
669.239	21.25059
669.437	-31.43231
669.635	-29.32529
669.833	-4.03909
670.031	-8.2537
670.229	10.7128
670.426	-54.60793
670.624	52.86748
670.822	-20.89695
671.02	-33.53931
671.218	-39.86016
671.415	-20.89695
671.613	46.54368
671.811	0.17561
672.009	50.75953
672.206	29.68125
672.404	-77.78048
672.602	-12.46822
672.799	-4.03909
672.997	-8.2537
673.195	-48.28761
673.392	-27.21824
673.59	-39.86016
673.788	90.81458
673.985	8.60532
674.183	-39.86016
674.38	84.48956
674.578	63.4076
674.775	23.35822
674.973	82.38126
675.17	33.89672
675.368	-6.14641
675.565	36.00449
675.763	21.25059
675.96	80.27299
676.158	8.60532
676.355	-12.46822
676.553	31.78897
676.75	29.68125
676.947	19.14299
677.145	-14.57544
677.342	12.82031
677.539	17.0354
677.737	-35.64629
677.934	21.25059
678.131	36.00449
678.329	-8.2537
678.526	50.75953
678.723	-4.03909
678.92	-6.14641
679.118	-18.7898
679.315	67.62381
679.512	-41.96706
679.709	-4.03909
679.906	-10.36097
680.104	-33.53931
680.301	-8.2537
680.498	33.89672
680.695	-27.21824
680.892	21.25059
681.089	-25.11117
681.286	-73.56752
681.483	92.92297
681.68	-23.00407
681.877	8.60532
682.075	19.14299
682.272	10.7128
682.469	-79.88693
682.665	19.14299
682.862	-25.11117
683.059	54.97546
683.256	-50.3944
683.453	-54.60793
683.65	46.54368
683.847	36.00449
684.044	0.17561
684.241	33.89672
684.438	-12.46822
684.635	4.39042
684.831	4.39042
685.028	25.46587
685.225	29.68125
685.422	-14.57544
685.619	-4.03909
685.815	-39.86016
686.012	-41.96706
686.209	17.0354
686.405	21.25059
686.602	-37.75323
686.799	-25.11117
686.996	-16.68263
687.192	40.22009
687.389	54.97546
687.586	-1.93175
687.782	-8.2537
687.979	-29.32529
688.175	-4.03909
688.372	8.60532
688.568	33.89672
688.765	-25.11117
688.962	-67.24789
689.158	-1.93175
689.355	-29.32529
689.551	67.62381
689.748	29.68125
689.944	-58.82135
690.14	-31.43231
690.337	-23.00407
690.533	17.0354
690.73	-4.03909
690.926	29.68125
691.123	33.89672
691.319	27.57355
691.515	-16.68263
691.712	-10.36097
691.908	-54.60793
692.104	46.54368
692.301	-41.96706
692.497	82.38126
692.693	50.75953
692.889	-37.75323
693.086	8.60532
693.282	2.283
693.478	-48.28761
693.674	54.97546
693.87	-31.43231
694.067	-14.57544
694.263	-23.00407
694.459	42.32793
694.655	8.60532
694.851	27.57355
695.047	36.00449
695.243	10.7128
695.439	-33.53931
695.635	10.7128
695.831	-33.53931
696.027	-48.28761
696.224	44.4358
696.42	44.4358
696.615	80.27299
696.811	21.25059
697.007	-27.21824
697.203	-8.2537
697.399	-6.14641
697.595	10.7128
697.791	33.89672
697.987	2.283
698.183	-58.82135
698.379	-6.14641
698.575	17.0354
698.77	12.82031
698.966	38.11228
699.162	17.0354
699.358	4.39042
699.554	33.89672
699.749	12.82031
699.945	50.75953
700.141	-25.11117
700.337	33.89672
700.532	-1.93175
700.728	-27.21824
700.924	-18.7898
701.119	0.17561
701.315	-23.00407
701.511	46.54368
701.706	33.89672
701.902	29.68125
702.097	-4.03909
702.293	14.92785
702.489	8.60532
702.684	-16.68263
702.88	19.14299
703.075	-105.16222
703.271	-1.93175
703.466	-29.32529
703.662	12.82031
703.857	-35.64629
704.053	-4.03909
704.248	46.54368
704.443	-33.53931
704.639	90.81458
704.834	29.68125
705.03	2.283
705.225	42.32793
705.42	-31.43231
705.616	-25.11117
705.811	38.11228
706.006	4.39042
706.202	33.89672
706.397	97.13981
706.592	46.54368
706.787	-14.57544
706.983	38.11228
707.178	-14.57544
707.373	52.86748
707.568	10.7128
707.763	25.46587
707.959	33.89672
708.154	-48.28761
708.349	-16.68263
708.544	33.89672
708.739	-41.96706
708.934	-29.32529
709.129	36.00449
709.324	38.11228
709.519	46.54368
709.714	-12.46822
709.909	-33.53931
710.104	-37.75323
710.299	-16.68263
710.494	-37.75323
710.689	29.68125
710.884	33.89672
711.079	0.17561
711.274	-20.89695
711.469	12.82031
711.664	0.17561
711.859	63.4076
712.054	19.14299
712.249	46.54368
712.443	50.75953
712.638	21.25059
712.833	-14.57544
713.028	109.79086
713.223	-37.75323
713.417	21.25059
713.612	10.7128
713.807	-41.96706
714.002	67.62381
714.196	-33.53931
714.391	-8.2537
714.586	-37.75323
714.78	33.89672
714.975	42.32793
715.17	25.46587
715.364	29.68125
715.559	59.19149
715.754	-25.11117
715.948	29.68125
716.143	-37.75323
716.337	52.86748
716.532	21.25059
716.726	14.92785
716.921	42.32793
717.115	31.78897
717.31	-10.36097
717.504	-6.14641
717.699	-14.57544
717.893	-1.93175
718.088	4.39042
718.282	52.86748
718.476	23.35822
718.671	0.17561
718.865	-31.43231
719.059	33.89672
719.254	-6.14641
719.448	-14.57544
719.642	-25.11117
719.837	50.75953
720.031	-31.43231
720.225	25.46587
720.419	8.60532
720.614	0.17561
720.808	12.82031
721.002	-8.2537
721.196	-48.28761
721.39	-20.89695
721.585	4.39042
721.779	63.4076
721.973	-6.14641
722.167	-18.7898
722.361	54.97546
722.555	10.7128
722.749	-54.60793
722.943	63.4076
723.137	-4.03909
723.331	-37.75323
723.525	-16.68263
723.719	25.46587
723.913	4.39042
724.107	59.19149
724.301	52.86748
724.495	48.65159
724.689	-39.86016
724.883	10.7128
725.077	0.17561
725.271	-56.71465
725.465	-20.89695
725.659	17.0354
725.853	25.46587
726.046	-23.00407
726.24	10.7128
726.434	-29.32529
726.628	57.08346
726.822	-25.11117
727.015	27.57355
727.209	-25.11117
727.403	-63.03467
727.596	78.16474
727.79	33.89672
727.984	88.70622
728.177	17.0354
728.371	2.283
728.565	-16.68263
728.758	50.75953
728.952	61.29953
729.146	76.05651
729.339	-20.89695
729.533	-1.93175
729.726	-31.43231
729.92	42.32793
730.113	-25.11117
730.307	25.46587
730.5	12.82031
730.694	54.97546
730.887	-31.43231
731.081	42.32793
731.274	42.32793
731.468	-14.57544
731.661	-29.32529
731.854	-16.68263
732.048	73.9483
732.241	-37.75323
732.435	10.7128
732.628	-8.2537
732.821	23.35822
733.014	12.82031
733.208	-18.7898
733.401	-52.50118
733.594	-4.03909
733.788	2.283
733.981	54.97546
734.174	25.46587
734.367	-1.93175
734.56	65.5157
734.754	33.89672
734.947	-18.7898
735.14	76.05651
735.333	-4.03909
735.526	36.00449
735.719	19.14299
735.912	36.00449
736.105	25.46587
736.298	-20.89695
736.491	29.68125
736.684	54.97546
736.877	42.32793
737.07	38.11228
737.263	17.0354
737.456	59.19149
737.649	21.25059
737.842	25.46587
738.035	17.0354
738.228	-6.14641
738.421	-41.96706
738.614	0.17561
738.807	-16.68263
739	-25.11117
739.192	8.60532
739.385	-23.00407
739.578	67.62381
739.771	44.4358
739.964	-16.68263
740.156	8.60532
740.349	-58.82135
740.542	27.57355
740.735	-8.2537
740.927	54.97546
741.12	25.46587
741.313	33.89672
741.505	-25.11117
741.698	25.46587
741.891	36.00449
742.083	6.49786
742.276	-50.3944
742.468	-41.96706
742.661	25.46587
742.854	31.78897
743.046	63.4076
743.239	-16.68263
743.431	-46.18078
743.624	27.57355
743.816	-63.03467
744.009	-52.50118
744.201	17.0354
744.393	-23.00407
744.586	54.97546
744.778	-10.36097
744.971	78.16474
745.163	-65.14129
745.355	-6.14641
745.548	92.92297
745.74	-50.3944
745.932	-67.24789
746.125	109.79086
746.317	-96.73754
746.509	8.60532
746.702	-33.53931
746.894	-50.3944
747.086	8.60532
747.278	17.0354
747.471	29.68125
747.663	-27.21824
747.855	12.82031
748.047	36.00449
748.239	-25.11117
748.431	38.11228
748.623	6.49786
748.815	19.14299
749.008	14.92785
749.2	-18.7898
749.392	19.14299
749.584	19.14299
749.776	23.35822
749.968	29.68125
750.16	4.39042
750.352	-10.36097
750.544	-18.7898
750.736	-75.67402
750.928	14.92785
751.12	27.57355
751.311	-46.18078
751.503	-6.14641
751.695	21.25059
751.887	73.9483
752.079	-33.53931
752.271	114.00805
752.463	12.82031
752.654	-16.68263
752.846	59.19149
753.038	12.82031
753.23	10.7128
753.421	-4.03909
753.613	27.57355
753.805	-25.11117
753.997	33.89672
754.188	42.32793
754.38	8.60532
754.572	-52.50118
754.763	23.35822
754.955	-16.68263
755.146	114.00805
755.338	25.46587
755.53	-58.82135
755.721	42.32793
755.913	-23.00407
756.104	19.14299
756.296	-20.89695
756.487	33.89672
756.679	2.283
756.87	-29.32529
757.062	-46.18078
757.253	-12.46822
757.445	-23.00407
757.636	25.46587
757.827	-41.96706
758.019	12.82031
758.21	-14.57544
758.401	-8.2537
758.593	-94.6313
758.784	86.59788
758.975	6.49786
759.167	48.65159
759.358	17.0354
759.549	31.78897
759.74	-12.46822
759.932	107.68229
760.123	33.89672
760.314	-25.11117
760.505	-31.43231
760.696	-12.46822
760.888	25.46587
761.079	-12.46822
761.27	25.46587
761.461	-23.00407
761.652	-54.60793
761.843	17.0354
762.034	-39.86016
762.225	-56.71465
762.416	33.89672
762.607	-25.11117
762.798	-54.60793
762.989	-25.11117
763.18	88.70622
763.371	-25.11117
763.562	6.49786
763.753	-25.11117
763.944	-8.2537
764.135	50.75953
764.326	-1.93175
764.517	-20.89695
764.708	67.62381
764.899	21.25059
765.089	50.75953
765.28	-33.53931
765.471	33.89672
765.662	38.11228
765.853	-39.86016
766.043	-8.2537
766.234	17.0354
766.425	73.9483
766.615	-37.75323
766.806	10.7128
766.997	-31.43231
767.187	101.35674
767.378	-20.89695
767.569	-6.14641
767.759	19.14299
767.95	38.11228
768.141	27.57355
768.331	-48.28761
768.522	23.35822
768.712	6.49786
768.903	21.25059
769.093	67.62381
769.284	84.48956
769.474	36.00449
769.665	17.0354
769.855	-46.18078
770.046	-37.75323
770.236	-33.53931
770.426	57.08346
770.617	-18.7898
770.807	27.57355
770.998	-10.36097
771.188	-6.14641
771.378	0.17561
771.569	31.78897
771.759	-4.03909
771.949	-20.89695
772.139	42.32793
772.33	-12.46822
772.52	-31.43231
772.71	-8.2537
772.9	-10.36097
773.09	14.92785
773.281	-20.89695
773.471	-27.21824
773.661	8.60532
773.851	17.0354
774.041	-52.50118
774.231	-29.32529
774.421	-20.89695
774.611	44.4358
774.802	-29.32529
774.992	17.0354
775.182	33.89672
775.372	-27.21824
775.562	54.97546
775.752	46.54368
775.942	29.68125
776.131	-50.3944
776.321	23.35822
776.511	-1.93175
776.701	21.25059
776.891	-50.3944
777.081	33.89672
777.271	-4.03909
777.461	27.57355
777.651	12.82031
777.84	33.89672
778.03	-8.2537
778.22	10.7128
778.41	-12.46822
778.599	-27.21824
778.789	-4.03909
778.979	-29.32529
779.169	-65.14129
779.358	25.46587
779.548	-25.11117
779.738	2.283
779.927	21.25059
780.117	-16.68263
780.307	29.68125
780.496	-12.46822
780.686	95.03138
780.875	14.92785
781.065	-12.46822
781.254	10.7128
781.444	25.46587
781.633	-39.86016
781.823	17.0354
782.012	-16.68263
782.202	-67.24789
782.391	19.14299
782.581	4.39042
782.77	17.0354
782.96	-4.03909
783.149	-20.89695
783.338	67.62381
783.528	-48.28761
783.717	44.4358
783.906	-31.43231
784.096	57.08346
784.285	54.97546
784.474	12.82031
784.663	-4.03909
784.853	4.39042
785.042	-58.82135
785.231	42.32793
785.42	84.48956
785.61	-56.71465
785.799	33.89672
785.988	12.82031
786.177	10.7128
786.366	-4.03909
786.555	-37.75323
786.744	33.89672
786.933	8.60532
787.122	2.283
787.312	76.05651
787.501	-60.92802
787.69	-54.60793
787.879	59.19149
788.068	38.11228
788.257	-90.41875
788.445	17.0354
788.634	59.19149
788.823	61.29953
789.012	76.05651
789.201	25.46587
789.39	-33.53931
789.579	17.0354
789.768	-14.57544
789.957	23.35822
790.145	-25.11117
790.334	31.78897
790.523	63.4076
790.712	-10.36097
790.9	33.89672
791.089	25.46587
791.278	59.19149
791.467	-16.68263
791.655	8.60532
791.844	-33.53931
792.033	48.65159
792.221	0.17561
792.41	-6.14641
792.599	29.68125
792.787	2.283
792.976	38.11228
793.164	4.39042
793.353	21.25059
793.541	38.11228
793.73	38.11228
793.918	-50.3944
794.107	-14.57544
794.295	14.92785
794.484	19.14299
794.672	4.39042
794.861	23.35822
795.049	23.35822
795.238	101.35674
795.426	12.82031
795.614	-31.43231
795.803	42.32793
795.991	71.84011
796.179	46.54368
796.368	19.14299
796.556	46.54368
796.744	8.60532
796.932	71.84011
797.121	-33.53931
797.309	8.60532
797.497	-31.43231
797.685	42.32793
797.874	-71.461
798.062	-4.03909
798.25	19.14299
798.438	80.27299
798.626	17.0354
798.814	-8.2537
799.002	67.62381
799.19	63.4076
799.378	109.79086
799.566	-6.14641
799.755	-25.11117
799.943	50.75953
800.131	25.46587
800.318	-67.24789
800.506	33.89672
800.694	17.0354
800.882	19.14299
801.07	44.4358
801.258	52.86748
801.446	-16.68263
801.634	-8.2537
801.822	21.25059
802.01	25.46587
802.197	21.25059
802.385	-4.03909
802.573	2.283
802.761	67.62381
802.949	48.65159
803.136	19.14299
803.324	-50.3944
803.512	29.68125
803.699	-8.2537
803.887	-46.18078
804.075	2.283
804.262	50.75953
804.45	-10.36097
804.638	25.46587
804.825	21.25059
805.013	-10.36097
805.201	46.54368
805.388	103.46523
805.576	50.75953
805.763	21.25059
805.951	25.46587
806.138	40.22009
806.326	-33.53931
806.513	73.9483
806.701	8.60532
806.888	50.75953
807.075	-10.36097
807.263	73.9483
807.45	14.92785
807.638	-25.11117
807.825	40.22009
808.012	12.82031
808.2	-16.68263
808.387	63.4076
808.574	69.73195
808.761	-33.53931
808.949	10.7128
809.136	42.32793
809.323	-12.46822
809.51	67.62381
809.698	-50.3944
809.885	57.08346
810.072	50.75953
810.259	-20.89695
810.446	54.97546
810.633	-29.32529
810.82	-23.00407
811.008	0.17561
811.195	25.46587
811.382	8.60532
811.569	57.08346
811.756	33.89672
811.943	52.86748
812.13	-25.11117
812.317	-4.03909
812.504	-12.46822
812.691	10.7128
812.878	12.82031
813.064	6.49786
813.251	33.89672
813.438	-33.53931
813.625	44.4358
813.812	21.25059
813.999	-54.60793
814.186	-4.03909
814.372	17.0354
814.559	8.60532
814.746	-92.52504
814.933	8.60532
815.12	-10.36097
815.306	4.39042
815.493	33.89672
815.68	8.60532
815.866	52.86748
816.053	-31.43231
816.24	0.17561
816.426	-37.75323
816.613	21.25059
816.799	33.89672
816.986	-52.50118
817.173	2.283
817.359	67.62381
817.546	76.05651
817.732	-8.2537
817.919	50.75953
818.105	2.283
818.292	-63.03467
818.478	-35.64629
818.665	76.05651
818.851	-31.43231
819.037	52.86748
819.224	29.68125
819.41	4.39042
819.597	8.60532
819.783	-6.14641
819.969	36.00449
820.156	-67.24789
820.342	59.19149
820.528	40.22009
820.714	71.84011
820.901	27.57355
821.087	-12.46822
821.273	46.54368
821.459	-12.46822
821.646	50.75953
821.832	36.00449
822.018	33.89672
822.204	2.283
822.39	25.46587
822.576	21.25059
822.762	-35.64629
822.948	-16.68263
823.134	-46.18078
823.32	38.11228
823.507	-37.75323
823.693	-4.03909
823.879	21.25059
824.065	19.14299
824.25	46.54368
824.436	25.46587
824.622	84.48956
824.808	-23.00407
824.994	-39.86016
825.18	78.16474
825.366	17.0354
825.552	21.25059
825.738	54.97546
825.923	23.35822
826.109	8.60532
826.295	-37.75323
826.481	38.11228
826.667	-4.03909
826.852	-31.43231
827.038	46.54368
827.224	29.68125
827.409	50.75953
827.595	-25.11117
827.781	23.35822
827.966	-20.89695
828.152	-12.46822
828.338	-69.35446
828.523	23.35822
828.709	46.54368
828.894	44.4358
829.08	-33.53931
829.266	-29.32529
829.451	12.82031
829.637	0.17561
829.822	-8.2537
830.008	-25.11117
830.193	-41.96706
830.378	59.19149
830.564	80.27299
830.749	21.25059
830.935	63.4076
831.12	12.82031
831.305	2.283
831.491	0.17561
831.676	73.9483
831.861	29.68125
832.047	0.17561
832.232	-8.2537
832.417	-1.93175
832.602	40.22009
832.788	8.60532
832.973	-27.21824
833.158	52.86748
833.343	-65.14129
833.528	-84.09974
833.714	21.25059
833.899	-6.14641
834.084	12.82031
834.269	67.62381
834.454	-60.92802
834.639	6.49786
834.824	-20.89695
835.009	6.49786
835.194	-16.68263
835.379	8.60532
835.564	21.25059
835.749	0.17561
835.934	21.25059
836.119	17.0354
836.304	-65.14129
836.489	-33.53931
836.674	29.68125
836.859	-44.07393
837.044	44.4358
837.228	10.7128
837.413	42.32793
837.598	-16.68263
837.783	-8.2537
837.968	-90.41875
838.152	69.73195
838.337	-20.89695
838.522	40.22009
838.707	-23.00407
838.891	-20.89695
839.076	17.0354
839.261	-16.68263
839.445	-8.2537
839.63	8.60532
839.815	17.0354
839.999	17.0354
840.184	29.68125
840.368	10.7128
840.553	-56.71465
840.737	-25.11117
840.922	10.7128
841.106	-37.75323
841.291	46.54368
841.475	57.08346
841.66	73.9483
841.844	50.75953
842.029	-12.46822
842.213	-25.11117
842.397	-27.21824
842.582	-75.67402
842.766	-39.86016
842.951	-25.11117
843.135	-1.93175
843.319	-69.35446
843.504	-31.43231
843.688	46.54368
843.872	-18.7898
844.056	2.283
844.241	-29.32529
844.425	2.283
844.609	-46.18078
844.793	-23.00407
844.977	25.46587
845.161	-92.52504
845.346	27.57355
845.53	76.05651
845.714	-31.43231
845.898	-37.75323
846.082	0.17561
846.266	25.46587
846.45	38.11228
846.634	25.46587
846.818	-41.96706
847.002	71.84011
847.186	21.25059
847.37	-4.03909
847.554	17.0354
847.738	71.84011
847.922	25.46587
848.106	25.46587
848.29	-14.57544
848.473	14.92785
848.657	-6.14641
848.841	8.60532
849.025	4.39042
849.209	67.62381
849.392	31.78897
849.576	0.17561
849.76	-46.18078
849.944	27.57355
850.127	-75.67402
850.311	128.76891
850.495	-12.46822
850.678	4.39042
850.862	8.60532
851.046	-33.53931
851.229	-12.46822
851.413	-25.11117
851.596	-4.03909
851.78	59.19149
851.964	-6.14641
852.147	-14.57544
852.331	-8.2537
852.514	59.19149
852.698	59.19149
852.881	-27.21824
853.065	8.60532
853.248	-39.86016
853.431	21.25059
853.615	156.18471
853.798	-20.89695
853.982	42.32793
854.165	4.39042
854.348	-12.46822
854.532	17.0354
854.715	-37.75323
854.898	-39.86016
855.081	-10.36097
855.265	-41.96706
855.448	-18.7898
855.631	6.49786
855.814	-8.2537
855.997	-37.75323
856.181	-54.60793
856.364	36.00449
856.547	-8.2537
856.73	-50.3944
856.913	-39.86016
857.096	19.14299
857.279	36.00449
857.462	-100.94993
857.645	57.08346
857.828	-16.68263
858.011	-33.53931
858.194	-73.56752
858.377	4.39042
858.56	65.5157
858.743	-31.43231
858.926	33.89672
859.109	-67.24789
859.292	-6.14641
859.475	48.65159
859.658	-84.09974
859.841	-4.03909
860.023	48.65159
860.206	29.68125
860.389	-12.46822
860.572	-25.11117
860.755	-39.86016
860.937	14.92785
861.12	6.49786
861.303	4.39042
861.486	12.82031
861.668	-41.96706
861.851	0.17561
862.034	19.14299
862.216	105.57375
862.399	27.57355
862.581	-14.57544
862.764	36.00449
862.947	-41.96706
863.129	52.86748
863.312	27.57355
863.494	48.65159
863.677	-8.2537
863.859	-6.14641
864.042	-23.00407
864.224	-41.96706
864.406	-4.03909
864.589	33.89672
864.771	71.84011
864.954	84.48956
865.136	-25.11117
865.318	0.17561
865.501	0.17561
865.683	50.75953
865.865	25.46587
866.048	36.00449
866.23	-4.03909
866.412	36.00449
866.594	59.19149
866.777	21.25059
866.959	-4.03909
867.141	-75.67402
867.323	2.283
867.505	23.35822
867.687	-14.57544
867.869	44.4358
868.052	-33.53931
868.234	6.49786
868.416	4.39042
868.598	29.68125
868.78	8.60532
868.962	25.46587
869.144	-41.96706
869.326	84.48956
869.508	-20.89695
869.69	-10.36097
869.872	-52.50118
870.054	48.65159
870.236	-46.18078
870.417	-14.57544
870.599	4.39042
870.781	-27.21824
870.963	14.92785
871.145	10.7128
871.327	-41.96706
871.508	46.54368
871.69	67.62381
871.872	10.7128
872.054	14.92785
872.235	29.68125
872.417	-27.21824
872.599	-41.96706
872.78	48.65159
872.962	17.0354
873.144	42.32793
873.325	38.11228
873.507	4.39042
873.689	10.7128
873.87	-25.11117
874.052	52.86748
874.233	63.4076
874.415	21.25059
874.596	-31.43231
874.778	-8.2537
874.959	17.0354
875.141	6.49786
875.322	-37.75323
875.503	17.0354
875.685	-35.64629
875.866	-16.68263
876.048	-33.53931
876.229	42.32793
876.41	50.75953
876.592	27.57355
876.773	-8.2537
876.954	-25.11117
877.136	2.283
877.317	-8.2537
877.498	-8.2537
877.679	42.32793
877.86	54.97546
878.042	4.39042
878.223	14.92785
878.404	8.60532
878.585	33.89672
878.766	-20.89695
878.947	46.54368
879.128	33.89672
879.309	-16.68263
879.49	67.62381
879.672	12.82031
879.853	-29.32529
880.034	8.60532
880.215	2.283
880.396	27.57355
880.576	61.29953
880.757	-31.43231
880.938	2.283
881.119	-44.07393
881.3	-12.46822
881.481	80.27299
881.662	-23.00407
881.843	61.29953
882.023	33.89672
882.204	-77.78048
882.385	33.89672
882.566	-73.56752
882.747	-58.82135
882.927	19.14299
883.108	-65.14129
883.289	8.60532
883.469	-6.14641
883.65	-23.00407
883.831	-117.79845
884.011	69.73195
884.192	-4.03909
884.373	-79.88693
884.553	46.54368
884.734	-4.03909
884.914	44.4358
885.095	-44.07393
885.275	-41.96706
885.456	99.24826
885.636	-8.2537
885.817	8.60532
885.997	-20.89695
886.178	-8.2537
886.358	54.97546
886.538	84.48956
886.719	12.82031
886.899	-14.57544
887.08	-33.53931
887.26	-16.68263
887.44	-46.18078
887.621	-12.46822
887.801	46.54368
887.981	29.68125
888.161	23.35822
888.342	10.7128
888.522	-20.89695
888.702	-69.35446
888.882	42.32793
889.062	38.11228
889.242	29.68125
889.423	6.49786
889.603	76.05651
889.783	8.60532
889.963	27.57355
890.143	33.89672
890.323	50.75953
890.503	-25.11117
890.683	19.14299
890.863	-37.75323
891.043	10.7128
891.223	21.25059
891.403	-12.46822
891.583	-20.89695
891.763	57.08346
891.943	6.49786
892.122	4.39042
892.302	12.82031
892.482	12.82031
892.662	-50.3944
892.842	78.16474
893.022	4.39042
893.201	10.7128
893.381	-33.53931
893.561	-16.68263
893.741	76.05651
893.92	59.19149
894.1	33.89672
894.28	17.0354
894.459	54.97546
894.639	-29.32529
894.819	-50.3944
894.998	-18.7898
895.178	17.0354
895.357	21.25059
895.537	-20.89695
895.716	21.25059
895.896	8.60532
896.075	-8.2537
896.255	-63.03467
896.434	36.00449
896.614	12.82031
896.793	31.78897
896.973	4.39042
897.152	-16.68263
897.331	21.25059
897.511	8.60532
897.69	42.32793
897.87	-16.68263
898.049	63.4076
898.228	17.0354
898.407	27.57355
898.587	36.00449
898.766	-20.89695
898.945	52.86748
899.124	25.46587
899.304	-54.60793
899.483	38.11228
899.662	6.49786
899.841	33.89672
900.02	27.57355
900.199	6.49786
900.378	-20.89695
900.557	27.57355
900.737	-25.11117
900.916	25.46587
901.095	-6.14641
901.274	4.39042
901.453	10.7128
901.632	10.7128
901.811	8.60532
901.989	0.17561
902.168	25.46587
902.347	-12.46822
902.526	-52.50118
902.705	-35.64629
902.884	-8.2537
903.063	-50.3944
903.242	8.60532
903.42	46.54368
903.599	21.25059
903.778	71.84011
903.957	0.17561
904.135	-10.36097
904.314	73.9483
904.493	42.32793
904.672	33.89672
904.85	86.59788
905.029	0.17561
905.207	-73.56752
905.386	36.00449
905.565	46.54368
905.743	21.25059
905.922	-4.03909
906.1	8.60532
906.279	38.11228
906.457	-20.89695
906.636	6.49786
906.814	25.46587
906.993	46.54368
907.171	19.14299
907.35	40.22009
907.528	33.89672
907.707	-20.89695
907.885	-50.3944
908.063	38.11228
908.242	-52.50118
908.42	-33.53931
908.598	8.60532
908.777	-8.2537
908.955	-44.07393
909.133	-44.07393
909.311	-54.60793
909.49	12.82031
909.668	17.0354
909.846	6.49786
910.024	21.25059
910.202	25.46587
910.38	12.82031
910.559	-23.00407
910.737	-37.75323
910.915	21.25059
911.093	0.17561
911.271	2.283
911.449	-25.11117
911.627	-27.21824
911.805	84.48956
911.983	-35.64629
912.161	50.75953
912.339	-39.86016
912.517	33.89672
912.695	12.82031
912.872	57.08346
913.05	-1.93175
913.228	-12.46822
913.406	8.60532
913.584	19.14299
913.762	17.0354
913.939	48.65159
914.117	-16.68263
914.295	-20.89695
914.473	40.22009
914.65	12.82031
914.828	50.75953
915.006	-8.2537
915.184	10.7128
915.361	-25.11117
915.539	-39.86016
915.716	-27.21824
915.894	31.78897
916.072	-69.35446
916.249	50.75953
916.427	61.29953
916.604	54.97546
916.782	29.68125
916.959	-31.43231
917.137	-31.43231
917.314	12.82031
917.492	46.54368
917.669	-60.92802
917.847	-88.31244
918.024	38.11228
918.201	44.4358
918.379	17.0354
918.556	50.75953
918.733	-23.00407
918.911	25.46587
919.088	8.60532
919.265	-29.32529
919.442	19.14299
919.62	8.60532
919.797	44.4358
919.974	-6.14641
920.151	54.97546
920.328	42.32793
920.506	-8.2537
920.683	0.17561
920.86	2.283
921.037	19.14299
921.214	-12.46822
921.391	-35.64629
921.568	36.00449
921.745	14.92785
921.922	-67.24789
922.099	-31.43231
922.276	-37.75323
922.453	50.75953
922.63	-37.75323
922.807	2.283
922.984	12.82031
923.161	-16.68263
923.338	19.14299
923.514	-8.2537
923.691	10.7128
923.868	21.25059
924.045	4.39042
924.222	12.82031
924.399	14.92785
924.575	23.35822
924.752	46.54368
924.929	50.75953
925.105	4.39042
925.282	44.4358
925.459	78.16474
925.635	8.60532
925.812	10.7128
925.989	38.11228
926.165	-16.68263
926.342	-39.86016
926.518	12.82031
926.695	8.60532
926.871	14.92785
927.048	19.14299
927.224	46.54368
927.401	50.75953
927.577	-29.32529
927.754	44.4358
927.93	-79.88693
928.107	78.16474
928.283	10.7128
928.459	36.00449
928.636	-35.64629
928.812	-33.53931
928.988	63.4076
929.165	33.89672
929.341	-67.24789
929.517	48.65159
929.693	38.11228
929.87	-23.00407
930.046	-63.03467
930.222	27.57355
930.398	33.89672
930.574	57.08346
930.751	-16.68263
930.927	-41.96706
931.103	-67.24789
931.279	4.39042
931.455	-27.21824
931.631	-8.2537
931.807	-1.93175
931.983	36.00449
932.159	-10.36097
932.335	8.60532
932.511	36.00449
932.687	-20.89695
932.863	0.17561
933.039	-33.53931
933.215	-37.75323
933.391	-12.46822
933.566	-41.96706
933.742	-65.14129
933.918	33.89672
934.094	-54.60793
934.27	10.7128
934.445	-23.00407
934.621	17.0354
934.797	-16.68263
934.973	-31.43231
935.148	21.25059
935.324	-23.00407
935.5	-4.03909
935.675	78.16474
935.851	4.39042
936.027	2.283
936.202	25.46587
936.378	36.00449
936.553	8.60532
936.729	-8.2537
936.904	17.0354
937.08	-20.89695
937.255	-71.461
937.431	-29.32529
937.606	-8.2537
937.782	2.283
937.957	14.92785
938.133	-54.60793
938.308	-12.46822
938.483	25.46587
938.659	-1.93175
938.834	50.75953
939.009	0.17561
939.185	0.17561
939.36	19.14299
939.535	80.27299
939.71	-39.86016
939.886	-23.00407
940.061	-14.57544
940.236	-35.64629
940.411	-6.14641
940.586	-6.14641
940.761	8.60532
940.937	14.92785
941.112	27.57355
941.287	-54.60793
941.462	44.4358
941.637	-4.03909
941.812	69.73195
941.987	-35.64629
942.162	25.46587
942.337	-50.3944
942.512	-4.03909
942.687	8.60532
942.862	84.48956
943.037	84.48956
943.212	0.17561
943.386	-63.03467
943.561	36.00449
943.736	-84.09974
943.911	-16.68263
944.086	44.4358
944.26	21.25059
944.435	8.60532
944.61	-63.03467
944.785	0.17561
944.959	59.19149
945.134	-31.43231
945.309	21.25059
945.483	33.89672
945.658	4.39042
945.833	-31.43231
946.007	33.89672
946.182	44.4358
946.357	-48.28761
946.531	-14.57544
946.706	27.57355
946.88	54.97546
947.055	-6.14641
947.229	21.25059
947.404	-37.75323
947.578	-41.96706
947.752	-71.461
947.927	-14.57544
948.101	0.17561
948.276	-58.82135
948.45	2.283
948.624	-8.2537
948.799	33.89672
948.973	44.4358
949.147	25.46587
949.321	21.25059
949.496	17.0354
949.67	-4.03909
949.844	-79.88693
950.018	36.00449
950.193	-48.28761
950.367	-58.82135
950.541	19.14299
950.715	0.17561
950.889	-6.14641
951.063	10.7128
951.237	25.46587
951.411	29.68125
951.585	4.39042
951.759	-23.00407
951.933	-75.67402
952.107	-41.96706
952.281	-50.3944
952.455	-63.03467
952.629	-27.21824
952.803	-44.07393
952.977	-46.18078
953.151	36.00449
953.325	8.60532
953.499	8.60532
953.672	0.17561
953.846	-12.46822
954.02	-16.68263
954.194	-46.18078
954.368	-23.00407
954.541	2.283
954.715	-4.03909
954.889	33.89672
955.062	36.00449
955.236	8.60532
955.41	67.62381
955.583	-16.68263
955.757	27.57355
955.93	50.75953
956.104	14.92785
956.278	-8.2537
956.451	65.5157
956.625	-33.53931
956.798	-58.82135
956.972	10.7128
957.145	25.46587
957.319	-41.96706
957.492	-10.36097
957.665	-25.11117
957.839	-18.7898
958.012	44.4358
958.185	42.32793
958.359	-56.71465
958.532	-48.28761
958.705	40.22009
958.879	76.05651
959.052	33.89672
959.225	12.82031
959.398	17.0354
959.572	25.46587
959.745	10.7128
959.918	80.27299
960.091	23.35822
960.264	-16.68263
960.438	27.57355
960.611	59.19149
960.784	-39.86016
960.957	42.32793
961.13	63.4076
961.303	10.7128
961.476	-86.2061
961.649	40.22009
961.822	-41.96706
961.995	-46.18078
962.168	-16.68263
962.341	17.0354
962.514	-48.28761
962.686	71.84011
962.859	4.39042
963.032	-37.75323
963.205	-25.11117
963.378	4.39042
963.551	-81.99334
963.723	33.89672
963.896	4.39042
964.069	54.97546
964.242	-65.14129
964.414	-29.32529
964.587	46.54368
964.76	-33.53931
964.932	6.49786
965.105	25.46587
965.278	27.57355
965.45	23.35822
965.623	0.17561
965.795	-14.57544
965.968	-10.36097
966.14	57.08346
966.313	-12.46822
966.485	52.86748
966.658	-50.3944
966.83	-8.2537
967.003	50.75953
967.175	-29.32529
967.348	36.00449
967.52	25.46587
967.692	-6.14641
967.865	69.73195
968.037	73.9483
968.209	31.78897
968.382	-41.96706
968.554	27.57355
968.726	-10.36097
968.898	17.0354
969.071	-1.93175
969.243	38.11228
969.415	8.60532
969.587	36.00449
969.759	8.60532
969.932	-4.03909
970.104	-46.18078
970.276	27.57355
970.448	-12.46822
970.62	38.11228
970.792	-33.53931
970.964	-50.3944
971.136	0.17561
971.308	-33.53931
971.48	-71.461
971.652	21.25059
971.824	-39.86016
971.996	21.25059
972.168	-46.18078
972.339	46.54368
972.511	23.35822
972.683	61.29953
972.855	0.17561
973.027	50.75953
973.199	10.7128
973.37	-27.21824
973.542	8.60532
973.714	44.4358
973.886	25.46587
974.057	-33.53931
974.229	-23.00407
974.401	-31.43231
974.572	54.97546
974.744	-54.60793
974.915	42.32793
975.087	17.0354
975.259	46.54368
975.43	-4.03909
975.602	0.17561
975.773	31.78897
975.945	21.25059
976.116	27.57355
976.288	8.60532
976.459	25.46587
976.63	52.86748
976.802	-37.75323
976.973	-4.03909
977.145	42.32793
977.316	-50.3944
977.487	27.57355
977.659	25.46587
977.83	61.29953
978.001	0.17561
978.172	2.283
978.344	-20.89695
978.515	29.68125
978.686	-37.75323
978.857	107.68229
979.028	86.59788
979.2	0.17561
979.371	29.68125
979.542	-67.24789
979.713	-4.03909
979.884	-6.14641
980.055	10.7128
980.226	-20.89695
980.397	-44.07393
980.568	-6.14641
980.739	-29.32529
980.91	59.19149
981.081	84.48956
981.252	-6.14641
981.423	-29.32529
981.594	2.283
981.765	-100.94993
981.936	8.60532
982.106	-8.2537
982.277	-18.7898
982.448	23.35822
982.619	-27.21824
982.79	17.0354
982.96	-8.2537
983.131	52.86748
983.302	31.78897
983.472	-39.86016
983.643	-18.7898
983.814	67.62381
983.984	78.16474
984.155	-25.11117
984.326	19.14299
984.496	-31.43231
984.667	23.35822
984.837	-58.82135
985.008	31.78897
985.178	42.32793
985.349	54.97546
985.519	42.32793
985.69	29.68125
985.86	36.00449
986.031	54.97546
986.201	-16.68263
986.371	-23.00407
986.542	10.7128
986.712	38.11228
986.882	29.68125
987.053	-4.03909
987.223	12.82031
987.393	0.17561
987.563	17.0354
987.734	0.17561
987.904	-4.03909
988.074	54.97546
988.244	-33.53931
988.414	4.39042
988.585	21.25059
988.755	4.39042
988.925	-10.36097
989.095	109.79086
989.265	10.7128
989.435	25.46587
989.605	-58.82135
989.775	29.68125
989.945	-33.53931
990.115	50.75953
990.285	-4.03909
990.455	-6.14641
990.625	-25.11117
990.795	2.283
990.965	10.7128
991.134	-29.32529
991.304	14.92785
991.474	-14.57544
991.644	10.7128
991.814	12.82031
991.984	-8.2537
992.153	0.17561
992.323	-27.21824
992.493	-33.53931
992.662	27.57355
992.832	-1.93175
993.002	-25.11117
993.171	46.54368
993.341	-25.11117
993.511	-6.14641
993.68	67.62381
993.85	-4.03909
994.019	-65.14129
994.189	-4.03909
994.358	2.283
994.528	8.60532
994.697	-29.32529
994.867	67.62381
995.036	21.25059
995.206	4.39042
995.375	-63.03467
995.544	73.9483
995.714	33.89672
995.883	-117.79845
996.052	2.283
996.222	57.08346
996.391	67.62381
996.56	-58.82135
996.73	8.60532
996.899	-31.43231
997.068	33.89672
997.237	-33.53931
997.406	59.19149
997.576	-14.57544
997.745	6.49786
997.914	-12.46822
998.083	-50.3944
998.252	-8.2537
998.421	-4.03909
998.59	-12.46822
998.759	71.84011
998.928	0.17561
999.097	23.35822
999.266	-29.32529
999.435	88.70622
999.604	-29.32529
999.773	-29.32529
999.942	25.46587
1000.111	27.57355
1000.28	-52.50118
1000.448	17.0354
1000.617	38.11228
1000.786	-18.7898
1000.955	-37.75323
1001.124	-73.56752
1001.292	6.49786
1001.461	12.82031
1001.63	17.0354
1001.798	-16.68263
1001.967	25.46587
1002.136	31.78897
1002.304	80.27299
1002.473	17.0354
1002.642	-16.68263
1002.81	-52.50118
1002.979	27.57355
1003.147	25.46587
1003.316	-14.57544
1003.484	73.9483
1003.653	-25.11117
1003.821	54.97546
1003.99	0.17561
1004.158	33.89672
1004.327	19.14299
1004.495	-29.32529
1004.663	8.60532
1004.832	4.39042
1005	65.5157
1005.168	-12.46822
1005.337	-58.82135
1005.505	2.283
1005.673	-29.32529
1005.842	54.97546
1006.01	76.05651
1006.178	67.62381
1006.346	33.89672
1006.514	25.46587
1006.683	27.57355
1006.851	-31.43231
1007.019	-25.11117
1007.187	-44.07393
1007.355	8.60532
1007.523	-67.24789
1007.691	14.92785
1007.859	-71.461
1008.027	12.82031
1008.195	0.17561
1008.363	-48.28761
1008.531	67.62381
1008.699	-4.03909
1008.867	-50.3944
1009.035	65.5157
1009.203	25.46587
1009.37	-14.57544
1009.538	-4.03909
1009.706	31.78897
1009.874	-29.32529
1010.042	25.46587
1010.209	25.46587
1010.377	25.46587
1010.545	27.57355
1010.713	-41.96706
1010.88	25.46587
1011.048	19.14299
1011.216	21.25059
1011.383	-16.68263
1011.551	-41.96706
1011.718	46.54368
1011.886	17.0354
1012.054	-54.60793
1012.221	61.29953
1012.389	12.82031
1012.556	-33.53931
1012.724	8.60532
1012.891	59.19149
1013.058	-10.36097
1013.226	36.00449
1013.393	-10.36097
1013.561	46.54368
1013.728	14.92785
1013.895	-25.11117
1014.063	29.68125
1014.23	-1.93175
1014.397	59.19149
1014.565	8.60532
1014.732	-20.89695
1014.899	-14.57544
1015.066	59.19149
1015.233	-31.43231
1015.401	19.14299
1015.568	2.283
1015.735	19.14299
1015.902	-31.43231
1016.069	2.283
1016.236	50.75953
1016.403	-44.07393
1016.57	-25.11117
1016.737	-37.75323
1016.904	50.75953
1017.071	-92.52504
1017.238	-8.2537
1017.405	-16.68263
1017.572	-63.03467
1017.739	52.86748
1017.906	2.283
1018.073	-75.67402
1018.24	59.19149
1018.407	29.68125
1018.573	-35.64629
1018.74	-10.36097
1018.907	38.11228
1019.074	-14.57544
1019.241	36.00449
1019.407	17.0354
1019.574	42.32793
1019.741	17.0354
1019.907	76.05651
1020.074	-39.86016
1020.241	-4.03909
1020.407	-4.03909
1020.574	21.25059
1020.74	-12.46822
1020.907	21.25059
1021.073	4.39042
1021.24	-71.461
1021.406	27.57355
1021.573	-77.78048
1021.739	10.7128
1021.906	-18.7898
1022.072	33.89672
1022.239	25.46587
1022.405	4.39042
1022.571	59.19149
1022.738	-58.82135
1022.904	-46.18078
1023.07	-50.3944
1023.237	-63.03467
1023.403	12.82031
1023.569	2.283
1023.735	-23.00407
1023.902	50.75953
1024.068	8.60532
1024.234	-63.03467
1024.4	103.46523
1024.566	-18.7898
1024.732	12.82031
1024.898	54.97546
1025.065	25.46587
1025.231	-60.92802
1025.397	10.7128
1025.563	10.7128
1025.729	-39.86016
1025.895	-10.36097
1026.061	-33.53931
1026.227	-4.03909
1026.392	0.17561
1026.558	-58.82135
1026.724	44.4358
1026.89	-37.75323
1027.056	-52.50118
1027.222	78.16474
1027.388	50.75953
1027.553	-39.86016
1027.719	-8.2537
1027.885	-12.46822
1028.051	38.11228
1028.216	-46.18078
1028.382	-25.11117
1028.548	52.86748
1028.713	25.46587
1028.879	-12.46822
1029.045	-33.53931
1029.21	25.46587
1029.376	71.84011
1029.541	0.17561
1029.707	78.16474
1029.873	-29.32529
1030.038	80.27299
1030.204	8.60532
1030.369	27.57355
1030.534	27.57355
1030.7	-33.53931
1030.865	2.283
1031.031	52.86748
1031.196	-37.75323
1031.361	10.7128
1031.527	92.92297
1031.692	0.17561
1031.857	42.32793
1032.023	10.7128
1032.188	-37.75323
1032.353	48.65159
1032.518	21.25059
1032.684	10.7128
1032.849	-4.03909
1033.014	71.84011
1033.179	-81.99334
1033.344	10.7128
1033.509	-25.11117
1033.674	0.17561
1033.839	0.17561
1034.004	29.68125
1034.17	44.4358
1034.335	17.0354
1034.5	10.7128
1034.664	36.00449
1034.829	-113.58648
1034.994	-20.89695
1035.159	6.49786
1035.324	8.60532
1035.489	0.17561
1035.654	-4.03909
1035.819	19.14299
1035.984	-48.28761
1036.148	42.32793
1036.313	-10.36097
1036.478	27.57355
1036.643	84.48956
1036.807	-8.2537
1036.972	48.65159
1037.137	52.86748
1037.301	88.70622
1037.466	-12.46822
1037.631	36.00449
1037.795	2.283
1037.96	-50.3944
1038.124	-25.11117
1038.289	44.4358
1038.454	19.14299
1038.618	42.32793
1038.783	10.7128
1038.947	-16.68263
1039.111	-46.18078
1039.276	12.82031
1039.44	36.00449
1039.605	4.39042
1039.769	25.46587
1039.933	-6.14641
1040.098	-12.46822
1040.262	-25.11117
1040.426	-6.14641
1040.591	-10.36097
1040.755	44.4358
1040.919	-44.07393
1041.083	-50.3944
1041.248	4.39042
1041.412	-44.07393
1041.576	73.9483
1041.74	17.0354
1041.904	38.11228
1042.068	12.82031
1042.232	25.46587
1042.397	-10.36097
1042.561	-27.21824
1042.725	17.0354
1042.889	17.0354
1043.053	-92.52504
1043.217	0.17561
1043.381	0.17561
1043.544	-6.14641
1043.708	135.09531
1043.872	14.92785
1044.036	-90.41875
1044.2	-37.75323
1044.364	59.19149
1044.528	25.46587
1044.691	-23.00407
1044.855	-50.3944
1045.019	88.70622
1045.183	46.54368
1045.346	-8.2537
1045.51	12.82031
1045.674	-35.64629
1045.837	-33.53931
1046.001	-8.2537
1046.165	21.25059
1046.328	-16.68263
1046.492	-58.82135
1046.655	44.4358
1046.819	59.19149
1046.983	10.7128
1047.146	17.0354
1047.31	54.97546
1047.473	-46.18078
1047.636	-25.11117
1047.8	-16.68263
1047.963	-16.68263
1048.127	-67.24789
1048.29	27.57355
