Data from Scatter_Coeff_Baseline_USB4F045381__11__0011.txt Node

Date: Thu Feb 13 19:17:15 EST 2025
User: mmckonesweet
Spectrometer: USB4F04538
Trigger mode: 4
Integration Time (sec): 2.400000E-3
Scans to average: 1
Electric dark correction enabled: true
Nonlinearity correction enabled: true
Boxcar width: 0
XAxis mode: Wavelengths
Number of Pixels in Spectrum: 3648
>>>>>Begin Spectral Data<<<<<
345.52	33.72107
345.736	33.72107
345.952	33.72107
346.168	-48.46317
346.384	6.32224
346.6	18.96735
346.816	27.39791
347.032	-37.92881
347.248	2.10739
347.464	75.88082
347.68	-65.31684
347.896	73.77262
348.112	-35.82187
348.328	44.26014
348.544	6.32224
348.76	-107.44383
348.975	-2.10736
349.191	-50.56997
349.407	59.01582
349.623	-4.2147
349.839	46.36803
350.055	-2.10736
350.27	35.82884
350.486	-27.39383
350.702	63.23193
350.918	59.01582
351.133	61.12386
351.349	8.4297
351.565	77.98905
351.781	6.32224
351.996	-6.32202
352.212	48.47593
352.428	31.61332
352.644	23.18258
352.859	-44.2495
353.075	-61.10358
353.291	4.2148
353.506	-27.39383
353.722	23.18258
353.938	56.90779
354.153	42.15228
354.369	-44.2495
354.584	10.53718
354.8	2.10739
355.016	6.32224
355.231	61.12386
355.447	-31.6079
355.662	-18.9654
355.878	52.69182
356.093	-44.2495
356.309	16.85977
356.524	-6.32202
356.74	-31.6079
356.955	21.07496
357.171	16.85977
357.386	67.44814
357.602	-0
357.817	-77.95602
358.033	2.10739
358.248	-18.9654
358.464	-33.71489
358.679	33.72107
358.895	23.18258
359.11	31.61332
359.325	56.90779
359.541	-8.42931
359.756	-31.6079
359.972	-14.75104
360.187	-27.39383
360.402	-14.75104
360.618	2.10739
360.833	-58.9969
361.048	6.32224
361.264	12.64469
361.479	99.07256
361.694	12.64469
361.909	6.32224
362.125	59.01582
362.34	59.01582
362.555	63.23193
362.77	12.64469
362.986	2.10739
363.201	73.77262
363.416	-88.48797
363.631	23.18258
363.847	103.28953
364.062	-23.17966
364.277	18.96735
364.492	-2.10736
364.707	-54.78349
364.922	-77.95602
365.138	99.07256
365.353	48.47593
365.568	-2.10736
365.783	69.55627
365.998	14.75222
366.213	-6.32202
366.428	-40.03573
366.643	12.64469
366.858	-65.31684
367.073	90.63889
367.288	-56.89021
367.503	-35.82187
367.718	-44.2495
367.933	14.75222
368.148	80.0973
368.363	84.31387
368.578	-2.10736
368.793	4.2148
369.008	-10.53658
369.223	-56.89021
369.438	-40.03573
369.653	44.26014
369.868	25.29023
370.083	-4.2147
370.298	-31.6079
370.513	92.74727
370.728	8.4297
370.943	10.53718
371.157	-8.42931
371.372	25.29023
371.587	-33.71489
371.802	-46.35635
372.017	2.10739
372.232	-37.92881
372.446	2.10739
372.661	2.10739
372.876	67.44814
373.091	65.34002
373.306	-2.10736
373.52	14.75222
373.735	18.96735
373.95	-2.10736
374.165	8.4297
374.379	31.61332
374.594	-14.75104
374.809	-52.67674
375.023	-2.10736
375.238	50.58386
375.453	31.61332
375.667	-48.46317
375.882	-25.28676
376.097	25.29023
376.311	2.10739
376.526	-0
376.741	52.69182
376.955	-10.53658
377.17	42.15228
377.384	31.61332
377.599	84.31387
377.813	25.29023
378.028	4.2148
378.242	33.72107
378.457	-35.82187
378.672	-8.42931
378.886	6.32224
379.101	40.04444
379.315	16.85977
379.53	6.32224
379.744	-18.9654
379.958	16.85977
380.173	-35.82187
380.387	-50.56997
380.602	56.90779
380.816	35.82884
381.031	40.04444
381.245	27.39791
381.459	52.69182
381.674	6.32224
381.888	-14.75104
382.103	-25.28676
382.317	-14.75104
382.531	2.10739
382.746	-42.14263
382.96	-10.53658
383.174	-8.42931
383.388	2.10739
383.603	-14.75104
383.817	-0
384.031	-4.2147
384.246	-31.6079
384.46	48.47593
384.674	42.15228
384.888	-33.71489
385.103	2.10739
385.317	27.39791
385.531	-56.89021
385.745	50.58386
385.959	56.90779
386.174	14.75222
386.388	23.18258
386.602	-16.85823
386.816	120.15828
387.03	-46.35635
387.244	-33.71489
387.458	29.5056
387.672	50.58386
387.887	35.82884
388.101	-25.28676
388.315	2.10739
388.529	18.96735
388.743	-23.17966
388.957	-4.2147
389.171	-96.91306
389.385	-2.10736
389.599	29.5056
389.813	23.18258
390.027	54.79979
390.241	82.20557
390.455	44.26014
390.669	33.72107
390.883	50.58386
391.097	4.2148
391.311	14.75222
391.525	-14.75104
391.738	-54.78349
391.952	27.39791
392.166	56.90779
392.38	50.58386
392.594	35.82884
392.808	-2.10736
393.022	-44.2495
393.236	46.36803
393.449	14.75222
393.663	-27.39383
393.877	25.29023
394.091	25.29023
394.305	-2.10736
394.518	56.90779
394.732	54.79979
394.946	126.48442
395.16	-27.39383
395.373	-61.10358
395.587	-35.82187
395.801	-54.78349
396.015	8.4297
396.228	40.04444
396.442	-10.53658
396.656	56.90779
396.869	-2.10736
397.083	16.85977
397.297	12.64469
397.51	-25.28676
397.724	6.32224
397.938	-21.07254
398.151	10.53718
398.365	29.5056
398.578	18.96735
398.792	21.07496
399.005	-6.32202
399.219	63.23193
399.433	-33.71489
399.646	52.69182
399.86	33.72107
400.073	-10.53658
400.287	2.10739
400.5	65.34002
400.714	-6.32202
400.927	2.10739
401.141	-23.17966
401.354	-6.32202
401.567	10.53718
401.781	6.32224
401.994	-18.9654
402.208	23.18258
402.421	35.82884
402.635	73.77262
402.848	-52.67674
403.061	59.01582
403.275	31.61332
403.488	-16.85823
403.701	2.10739
403.915	10.53718
404.128	-8.42931
404.341	40.04444
404.555	-25.28676
404.768	92.74727
404.981	42.15228
405.195	27.39791
405.408	2.10739
405.621	35.82884
405.834	50.58386
406.048	-35.82187
406.261	33.72107
406.474	69.55627
406.687	21.07496
406.9	65.34002
407.114	-52.67674
407.327	31.61332
407.54	44.26014
407.753	-12.64382
407.966	18.96735
408.179	46.36803
408.392	8.4297
408.605	18.96735
408.819	-14.75104
409.032	67.44814
409.245	-2.10736
409.458	48.47593
409.671	-6.32202
409.884	92.74727
410.097	-8.42931
410.31	-6.32202
410.523	6.32224
410.736	-12.64382
410.949	50.58386
411.162	59.01582
411.375	14.75222
411.588	-2.10736
411.801	-27.39383
412.014	77.98905
412.227	23.18258
412.44	-14.75104
412.653	-37.92881
412.865	50.58386
413.078	33.72107
413.291	-18.9654
413.504	-40.03573
413.717	-50.56997
413.93	-35.82187
414.143	40.04444
414.356	84.31387
414.568	-18.9654
414.781	-16.85823
414.994	16.85977
415.207	-10.53658
415.42	75.88082
415.632	65.34002
415.845	48.47593
416.058	-6.32202
416.271	-35.82187
416.483	-27.39383
416.696	16.85977
416.909	25.29023
417.121	-31.6079
417.334	10.53718
417.547	-12.64382
417.759	-6.32202
417.972	42.15228
418.185	16.85977
418.397	33.72107
418.61	25.29023
418.823	-25.28676
419.035	-0
419.248	-40.03573
419.46	80.0973
419.673	-10.53658
419.885	27.39791
420.098	-6.32202
420.311	63.23193
420.523	-25.28676
420.736	65.34002
420.948	-2.10736
421.161	31.61332
421.373	35.82884
421.586	-40.03573
421.798	18.96735
422.01	6.32224
422.223	-8.42931
422.435	4.2148
422.648	40.04444
422.86	27.39791
423.073	69.55627
423.285	-58.9969
423.497	21.07496
423.71	-16.85823
423.922	29.5056
424.134	-4.2147
424.347	42.15228
424.559	48.47593
424.771	21.07496
424.984	-2.10736
425.196	84.31387
425.408	75.88082
425.621	40.04444
425.833	-14.75104
426.045	82.20557
426.257	-10.53658
426.47	-33.71489
426.682	-6.32202
426.894	12.64469
427.106	92.74727
427.318	4.2148
427.531	27.39791
427.743	27.39791
427.955	31.61332
428.167	14.75222
428.379	33.72107
428.591	-48.46317
428.804	40.04444
429.016	12.64469
429.228	-52.67674
429.44	-31.6079
429.652	10.53718
429.864	25.29023
430.076	10.53718
430.288	10.53718
430.5	23.18258
430.712	-16.85823
430.924	27.39791
431.136	61.12386
431.348	-4.2147
431.56	44.26014
431.772	6.32224
431.984	44.26014
432.196	2.10739
432.408	52.69182
432.62	16.85977
432.832	18.96735
433.044	-48.46317
433.256	-25.28676
433.468	-27.39383
433.679	61.12386
433.891	16.85977
434.103	6.32224
434.315	52.69182
434.527	50.58386
434.739	-0
434.95	35.82884
435.162	18.96735
435.374	-103.2316
435.586	10.53718
435.798	82.20557
436.009	52.69182
436.221	50.58386
436.433	-0
436.645	18.96735
436.856	-12.64382
437.068	4.2148
437.28	31.61332
437.491	31.61332
437.703	-44.2495
437.915	71.66443
438.126	-2.10736
438.338	61.12386
438.55	-16.85823
438.761	42.15228
438.973	-18.9654
439.184	-27.39383
439.396	14.75222
439.608	40.04444
439.819	-67.42343
440.031	40.04444
440.242	40.04444
440.454	56.90779
440.665	-16.85823
440.877	31.61332
441.088	77.98905
441.3	103.28953
441.511	-6.32202
441.723	56.90779
441.934	-2.10736
442.146	-25.28676
442.357	50.58386
442.569	-0
442.78	-33.71489
442.991	-6.32202
443.203	-35.82187
443.414	-73.74306
443.626	8.4297
443.837	65.34002
444.048	-2.10736
444.26	31.61332
444.471	14.75222
444.682	-40.03573
444.894	61.12386
445.105	-4.2147
445.316	4.2148
445.528	48.47593
445.739	-16.85823
445.95	-16.85823
446.161	37.93663
446.373	42.15228
446.584	-52.67674
446.795	-12.64382
447.006	48.47593
447.217	-16.85823
447.429	-12.64382
447.64	84.31387
447.851	-8.42931
448.062	77.98905
448.273	18.96735
448.484	90.63889
448.695	-56.89021
448.907	27.39791
449.118	48.47593
449.329	-27.39383
449.54	-4.2147
449.751	44.26014
449.962	-2.10736
450.173	-14.75104
450.384	-69.53
450.595	-27.39383
450.806	6.32224
451.017	40.04444
451.228	-0
451.439	48.47593
451.65	56.90779
451.861	-42.14263
452.072	-12.64382
452.283	-56.89021
452.494	61.12386
452.705	50.58386
452.915	23.18258
453.126	-14.75104
453.337	-44.2495
453.548	73.77262
453.759	73.77262
453.97	16.85977
454.181	-27.39383
454.391	10.53718
454.602	-2.10736
454.813	69.55627
455.024	10.53718
455.235	6.32224
455.445	-18.9654
455.656	40.04444
455.867	33.72107
456.078	12.64469
456.288	37.93663
456.499	6.32224
456.71	46.36803
456.921	14.75222
457.131	48.47593
457.342	73.77262
457.553	18.96735
457.763	8.4297
457.974	31.61332
458.184	-4.2147
458.395	44.26014
458.606	23.18258
458.816	-6.32202
459.027	44.26014
459.237	2.10739
459.448	-16.85823
459.659	42.15228
459.869	-33.71489
460.08	-0
460.29	71.66443
460.501	14.75222
460.711	56.90779
460.922	16.85977
461.132	44.26014
461.343	-18.9654
461.553	10.53718
461.764	31.61332
461.974	90.63889
462.184	6.32224
462.395	-23.17966
462.605	-2.10736
462.816	35.82884
463.026	37.93663
463.236	-27.39383
463.447	-8.42931
463.657	-10.53658
463.867	99.07256
464.078	-25.28676
464.288	40.04444
464.498	31.61332
464.709	-46.35635
464.919	134.91958
465.129	42.15228
465.339	-14.75104
465.55	16.85977
465.76	12.64469
465.97	-2.10736
466.18	-16.85823
466.391	-23.17966
466.601	6.32224
466.811	12.64469
467.021	54.79979
467.231	-23.17966
467.441	2.10739
467.651	14.75222
467.862	-18.9654
468.072	44.26014
468.282	27.39791
468.492	16.85977
468.702	16.85977
468.912	33.72107
469.122	-14.75104
469.332	25.29023
469.542	23.18258
469.752	4.2148
469.962	8.4297
470.172	61.12386
470.382	16.85977
470.592	40.04444
470.802	27.39791
471.012	2.10739
471.222	16.85977
471.432	-4.2147
471.642	23.18258
471.852	2.10739
472.062	-27.39383
472.272	-23.17966
472.482	-0
472.691	23.18258
472.901	105.39804
473.111	25.29023
473.321	63.23193
473.531	-14.75104
473.741	25.29023
473.95	61.12386
474.16	-10.53658
474.37	23.18258
474.58	16.85977
474.79	52.69182
474.999	31.61332
475.209	6.32224
475.419	40.04444
475.628	14.75222
475.838	99.07256
476.048	-8.42931
476.258	14.75222
476.467	23.18258
476.677	-4.2147
476.886	10.53718
477.096	-8.42931
477.306	31.61332
477.515	46.36803
477.725	31.61332
477.935	82.20557
478.144	40.04444
478.354	67.44814
478.563	-44.2495
478.773	31.61332
478.982	35.82884
479.192	10.53718
479.401	94.85568
479.611	23.18258
479.82	8.4297
480.03	-23.17966
480.239	27.39791
480.449	14.75222
480.658	16.85977
480.868	-6.32202
481.077	-84.27527
481.287	-29.50088
481.496	2.10739
481.705	61.12386
481.915	-8.42931
482.124	18.96735
482.333	18.96735
482.543	2.10739
482.752	52.69182
482.961	31.61332
483.171	-2.10736
483.38	12.64469
483.589	14.75222
483.799	-33.71489
484.008	-35.82187
484.217	-16.85823
484.426	33.72107
484.636	65.34002
484.845	-2.10736
485.054	77.98905
485.263	84.31387
485.472	35.82884
485.682	18.96735
485.891	27.39791
486.1	46.36803
486.309	6.32224
486.518	23.18258
486.727	44.26014
486.936	12.64469
487.146	-2.10736
487.355	84.31387
487.564	-35.82187
487.773	31.61332
487.982	10.53718
488.191	31.61332
488.4	-23.17966
488.609	-2.10736
488.818	77.98905
489.027	42.15228
489.236	-33.71489
489.445	-8.42931
489.654	-48.46317
489.863	-18.9654
490.072	-6.32202
490.281	12.64469
490.49	23.18258
490.698	31.61332
490.907	-48.46317
491.116	16.85977
491.325	31.61332
491.534	-0
491.743	-6.32202
491.952	40.04444
492.16	2.10739
492.369	54.79979
492.578	-35.82187
492.787	-35.82187
492.996	67.44814
493.204	-14.75104
493.413	21.07496
493.622	-44.2495
493.831	-12.64382
494.039	-23.17966
494.248	10.53718
494.457	4.2148
494.665	-27.39383
494.874	-21.07254
495.083	44.26014
495.291	56.90779
495.5	-25.28676
495.709	-18.9654
495.917	-58.9969
496.126	-52.67674
496.335	-44.2495
496.543	37.93663
496.752	-18.9654
496.96	25.29023
497.169	-48.46317
497.377	21.07496
497.586	46.36803
497.794	2.10739
498.003	75.88082
498.211	-44.2495
498.42	21.07496
498.628	2.10739
498.837	56.90779
499.045	-0
499.254	73.77262
499.462	56.90779
499.671	59.01582
499.879	-2.10736
500.087	44.26014
500.296	-2.10736
500.504	33.72107
500.713	8.4297
500.921	18.96735
501.129	-54.78349
501.338	14.75222
501.546	-2.10736
501.754	35.82884
501.962	-14.75104
502.171	-69.53
502.379	27.39791
502.587	65.34002
502.795	4.2148
503.004	48.47593
503.212	92.74727
503.42	40.04444
503.628	-10.53658
503.837	33.72107
504.045	12.64469
504.253	4.2148
504.461	6.32224
504.669	48.47593
504.877	-31.6079
505.085	56.90779
505.294	56.90779
505.502	-6.32202
505.71	6.32224
505.918	40.04444
506.126	-16.85823
506.334	35.82884
506.542	77.98905
506.75	40.04444
506.958	73.77262
507.166	-25.28676
507.374	-21.07254
507.582	-10.53658
507.79	40.04444
507.998	16.85977
508.206	18.96735
508.414	10.53718
508.622	12.64469
508.83	-65.31684
509.037	-31.6079
509.245	6.32224
509.453	37.93663
509.661	25.29023
509.869	31.61332
510.077	-50.56997
510.285	-35.82187
510.492	12.64469
510.7	59.01582
510.908	16.85977
511.116	-46.35635
511.324	18.96735
511.531	29.5056
511.739	52.69182
511.947	4.2148
512.155	59.01582
512.362	23.18258
512.57	40.04444
512.778	-33.71489
512.985	-27.39383
513.193	-10.53658
513.401	-8.42931
513.608	-101.12544
513.816	35.82884
514.024	37.93663
514.231	40.04444
514.439	16.85977
514.646	-35.82187
514.854	48.47593
515.061	56.90779
515.269	-18.9654
515.477	16.85977
515.684	35.82884
515.892	6.32224
516.099	-2.10736
516.307	-27.39383
516.514	-0
516.722	-33.71489
516.929	40.04444
517.136	-35.82187
517.344	8.4297
517.551	48.47593
517.759	-18.9654
517.966	21.07496
518.173	42.15228
518.381	69.55627
518.588	-6.32202
518.796	31.61332
519.003	46.36803
519.21	23.18258
519.418	10.53718
519.625	-58.9969
519.832	33.72107
520.039	-33.71489
520.247	-33.71489
520.454	-40.03573
520.661	75.88082
520.868	-67.42343
521.076	80.0973
521.283	99.07256
521.49	-27.39383
521.697	33.72107
521.904	-90.59428
522.112	6.32224
522.319	-44.2495
522.526	6.32224
522.733	-27.39383
522.94	-25.28676
523.147	29.5056
523.354	27.39791
523.561	44.26014
523.768	-42.14263
523.975	-33.71489
524.183	31.61332
524.39	23.18258
524.597	12.64469
524.804	54.79979
525.011	31.61332
525.218	33.72107
525.425	77.98905
525.632	44.26014
525.838	-0
526.045	37.93663
526.252	31.61332
526.459	-0
526.666	46.36803
526.873	67.44814
527.08	-18.9654
527.287	-4.2147
527.494	35.82884
527.701	44.26014
527.907	35.82884
528.114	-8.42931
528.321	40.04444
528.528	35.82884
528.735	-52.67674
528.941	29.5056
529.148	-12.64382
529.355	42.15228
529.562	67.44814
529.768	35.82884
529.975	-44.2495
530.182	31.61332
530.388	42.15228
530.595	-0
530.802	-23.17966
531.008	25.29023
531.215	16.85977
531.422	-2.10736
531.628	10.53718
531.835	-16.85823
532.042	-0
532.248	-10.53658
532.455	31.61332
532.661	-37.92881
532.868	14.75222
533.074	27.39791
533.281	-2.10736
533.487	48.47593
533.694	56.90779
533.9	10.53718
534.107	69.55627
534.313	67.44814
534.52	6.32224
534.726	42.15228
534.933	10.53718
535.139	16.85977
535.345	16.85977
535.552	-12.64382
535.758	8.4297
535.965	-12.64382
536.171	-0
536.377	-12.64382
536.584	29.5056
536.79	-2.10736
536.996	-12.64382
537.203	14.75222
537.409	23.18258
537.615	-31.6079
537.821	56.90779
538.028	-14.75104
538.234	33.72107
538.44	10.53718
538.646	31.61332
538.853	-23.17966
539.059	6.32224
539.265	31.61332
539.471	59.01582
539.677	33.72107
539.883	73.77262
540.09	-61.10358
540.296	27.39791
540.502	-6.32202
540.708	27.39791
540.914	6.32224
541.12	40.04444
541.326	88.53052
541.532	-42.14263
541.738	-31.6079
541.944	42.15228
542.15	18.96735
542.356	124.37568
542.562	56.90779
542.768	-27.39383
542.974	6.32224
543.18	4.2148
543.386	12.64469
543.592	99.07256
543.798	46.36803
544.004	-27.39383
544.21	-23.17966
544.415	31.61332
544.621	-23.17966
544.827	-27.39383
545.033	23.18258
545.239	16.85977
545.445	35.82884
545.651	-33.71489
545.856	-50.56997
546.062	-16.85823
546.268	-48.46317
546.474	23.18258
546.679	37.93663
546.885	-21.07254
547.091	-18.9654
547.297	73.77262
547.502	21.07496
547.708	48.47593
547.914	-18.9654
548.119	71.66443
548.325	6.32224
548.531	-35.82187
548.736	21.07496
548.942	-35.82187
549.147	-8.42931
549.353	6.32224
549.559	-101.12544
549.764	-6.32202
549.97	65.34002
550.175	-8.42931
550.381	-44.2495
550.586	18.96735
550.792	6.32224
550.997	4.2148
551.203	14.75222
551.408	-2.10736
551.614	27.39791
551.819	99.07256
552.025	-8.42931
552.23	-6.32202
552.435	-16.85823
552.641	12.64469
552.846	-4.2147
553.052	33.72107
553.257	-10.53658
553.462	-44.2495
553.668	-61.10358
553.873	31.61332
554.078	73.77262
554.283	35.82884
554.489	8.4297
554.694	42.15228
554.899	8.4297
555.105	-0
555.31	35.82884
555.515	-52.67674
555.72	10.53718
555.925	-33.71489
556.131	18.96735
556.336	48.47593
556.541	73.77262
556.746	-23.17966
556.951	-0
557.156	-56.89021
557.361	56.90779
557.567	-46.35635
557.772	-18.9654
557.977	61.12386
558.182	50.58386
558.387	67.44814
558.592	6.32224
558.797	16.85977
559.002	48.47593
559.207	-2.10736
559.412	-6.32202
559.617	73.77262
559.822	4.2148
560.027	33.72107
560.232	-14.75104
560.437	-44.2495
560.642	2.10739
560.847	-0
561.051	48.47593
561.256	23.18258
561.461	50.58386
561.666	-4.2147
561.871	-54.78349
562.076	-12.64382
562.281	6.32224
562.485	-44.2495
562.69	-18.9654
562.895	2.10739
563.1	44.26014
563.305	-4.2147
563.509	6.32224
563.714	6.32224
563.919	31.61332
564.123	59.01582
564.328	-48.46317
564.533	59.01582
564.737	-21.07254
564.942	-48.46317
565.147	50.58386
565.351	52.69182
565.556	-27.39383
565.761	31.61332
565.965	52.69182
566.17	16.85977
566.374	35.82884
566.579	75.88082
566.784	14.75222
566.988	52.69182
567.193	-44.2495
567.397	33.72107
567.602	-65.31684
567.806	4.2148
568.011	-0
568.215	14.75222
568.42	18.96735
568.624	16.85977
568.828	-6.32202
569.033	99.07256
569.237	37.93663
569.442	80.0973
569.646	-25.28676
569.85	-48.46317
570.055	21.07496
570.259	65.34002
570.463	77.98905
570.668	27.39791
570.872	33.72107
571.076	67.44814
571.281	61.12386
571.485	4.2148
571.689	-0
571.893	14.75222
572.098	14.75222
572.302	31.61332
572.506	63.23193
572.71	69.55627
572.914	-37.92881
573.119	-10.53658
573.323	-4.2147
573.527	40.04444
573.731	44.26014
573.935	21.07496
574.139	48.47593
574.343	12.64469
574.547	35.82884
574.751	-23.17966
574.955	6.32224
575.159	61.12386
575.364	10.53718
575.568	16.85977
575.772	42.15228
575.976	65.34002
576.18	54.79979
576.383	18.96735
576.587	-8.42931
576.791	6.32224
576.995	86.42218
577.199	8.4297
577.403	-42.14263
577.607	21.07496
577.811	40.04444
578.015	-52.67674
578.219	8.4297
578.422	-46.35635
578.626	37.93663
578.83	-44.2495
579.034	44.26014
579.238	73.77262
579.442	23.18258
579.645	-86.38163
579.849	31.61332
580.053	-2.10736
580.257	18.96735
580.46	-2.10736
580.664	-33.71489
580.868	86.42218
581.071	27.39791
581.275	99.07256
581.479	52.69182
581.682	75.88082
581.886	42.15228
582.09	10.53718
582.293	-33.71489
582.497	-8.42931
582.7	37.93663
582.904	52.69182
583.107	44.26014
583.311	27.39791
583.515	6.32224
583.718	52.69182
583.922	10.53718
584.125	14.75222
584.329	40.04444
584.532	33.72107
584.735	-25.28676
584.939	59.01582
585.142	2.10739
585.346	-10.53658
585.549	-42.14263
585.753	-6.32202
585.956	-61.10358
586.159	23.18258
586.363	31.61332
586.566	-14.75104
586.769	-35.82187
586.973	56.90779
587.176	-40.03573
587.379	8.4297
587.582	27.39791
587.786	-18.9654
587.989	14.75222
588.192	-16.85823
588.395	37.93663
588.599	10.53718
588.802	16.85977
589.005	-4.2147
589.208	67.44814
589.411	-10.53658
589.615	-42.14263
589.818	-2.10736
590.021	-56.89021
590.224	-27.39383
590.427	25.29023
590.63	77.98905
590.833	27.39791
591.036	56.90779
591.239	37.93663
591.442	-10.53658
591.645	35.82884
591.848	-50.56997
592.051	48.47593
592.254	35.82884
592.457	65.34002
592.66	61.12386
592.863	-4.2147
593.066	-16.85823
593.269	-14.75104
593.472	-6.32202
593.675	-4.2147
593.878	2.10739
594.081	-23.17966
594.284	65.34002
594.486	23.18258
594.689	-69.53
594.892	-10.53658
595.095	67.44814
595.298	69.55627
595.5	82.20557
595.703	-23.17966
595.906	67.44814
596.109	42.15228
596.311	90.63889
596.514	69.55627
596.717	-0
596.92	46.36803
597.122	73.77262
597.325	46.36803
597.528	-33.71489
597.73	80.0973
597.933	-23.17966
598.136	-46.35635
598.338	42.15228
598.541	-23.17966
598.743	2.10739
598.946	27.39791
599.148	2.10739
599.351	48.47593
599.554	25.29023
599.756	-86.38163
599.959	35.82884
600.161	63.23193
600.363	67.44814
600.566	-71.63655
600.768	-0
600.971	4.2148
601.173	-23.17966
601.376	56.90779
601.578	-33.71489
601.78	-25.28676
601.983	27.39791
602.185	40.04444
602.388	-6.32202
602.59	-18.9654
602.792	14.75222
602.995	-29.50088
603.197	75.88082
603.399	92.74727
603.601	16.85977
603.804	48.47593
604.006	-23.17966
604.208	-77.95602
604.41	29.5056
604.613	31.61332
604.815	8.4297
605.017	31.61332
605.219	-27.39383
605.421	42.15228
605.623	27.39791
605.826	-35.82187
606.028	-12.64382
606.23	-18.9654
606.432	37.93663
606.634	65.34002
606.836	-48.46317
607.038	6.32224
607.24	31.61332
607.442	46.36803
607.644	37.93663
607.846	-35.82187
608.048	40.04444
608.25	-8.42931
608.452	-4.2147
608.654	-14.75104
608.856	-18.9654
609.058	-14.75104
609.26	-0
609.462	-25.28676
609.664	-16.85823
609.866	-75.84956
610.067	-31.6079
610.269	10.53718
610.471	50.58386
610.673	40.04444
610.875	-42.14263
611.077	151.79091
611.278	69.55627
611.48	18.96735
611.682	52.69182
611.884	4.2148
612.085	6.32224
612.287	-75.84956
612.489	23.18258
612.69	-2.10736
612.892	50.58386
613.094	-12.64382
613.295	-33.71489
613.497	-14.75104
613.699	-27.39383
613.9	59.01582
614.102	-46.35635
614.304	23.18258
614.505	63.23193
614.707	25.29023
614.908	48.47593
615.11	21.07496
615.311	-23.17966
615.513	-2.10736
615.714	-56.89021
615.916	4.2148
616.117	6.32224
616.319	8.4297
616.52	-16.85823
616.722	-23.17966
616.923	71.66443
617.124	-42.14263
617.326	105.39804
617.527	90.63889
617.729	-6.32202
617.93	2.10739
618.131	-44.2495
618.333	86.42218
618.534	2.10739
618.735	-8.42931
618.937	23.18258
619.138	23.18258
619.339	6.32224
619.54	-40.03573
619.742	-58.9969
619.943	2.10739
620.144	10.53718
620.345	48.47593
620.546	-18.9654
620.748	18.96735
620.949	8.4297
621.15	29.5056
621.351	-23.17966
621.552	18.96735
621.753	-14.75104
621.954	31.61332
622.155	69.55627
622.356	-25.28676
622.558	-10.53658
622.759	65.34002
622.96	44.26014
623.161	-21.07254
623.362	2.10739
623.563	2.10739
623.764	6.32224
623.965	-10.53658
624.166	18.96735
624.366	-58.9969
624.567	-4.2147
624.768	54.79979
624.969	-6.32202
625.17	4.2148
625.371	40.04444
625.572	48.47593
625.773	-27.39383
625.973	-14.75104
626.174	-58.9969
626.375	46.36803
626.576	-16.85823
626.777	48.47593
626.977	-29.50088
627.178	-50.56997
627.379	14.75222
627.58	-84.27527
627.78	31.61332
627.981	-8.42931
628.182	14.75222
628.382	-48.46317
628.583	31.61332
628.784	25.29023
628.984	48.47593
629.185	-0
629.386	-0
629.586	4.2148
629.787	23.18258
629.987	44.26014
630.188	35.82884
630.388	86.42218
630.589	65.34002
630.79	-0
630.99	2.10739
631.191	82.20557
631.391	27.39791
631.591	44.26014
631.792	44.26014
631.992	44.26014
632.193	40.04444
632.393	56.90779
632.594	86.42218
632.794	21.07496
632.994	12.64469
633.195	111.72373
633.395	-14.75104
633.595	-18.9654
633.796	23.18258
633.996	40.04444
634.196	14.75222
634.397	-31.6079
634.597	-14.75104
634.797	31.61332
634.997	6.32224
635.198	23.18258
635.398	-18.9654
635.598	-40.03573
635.798	-8.42931
635.998	12.64469
636.199	-10.53658
636.399	6.32224
636.599	75.88082
636.799	23.18258
636.999	-2.10736
637.199	-0
637.399	2.10739
637.599	48.47593
637.799	-10.53658
637.999	31.61332
638.199	56.90779
638.399	-40.03573
638.599	48.47593
638.799	42.15228
638.999	-80.06246
639.199	21.07496
639.399	35.82884
639.599	14.75222
639.799	-16.85823
639.999	48.47593
640.199	-8.42931
640.399	-25.28676
640.599	33.72107
640.799	67.44814
640.998	6.32224
641.198	-46.35635
641.398	48.47593
641.598	69.55627
641.798	-0
641.997	10.53718
642.197	-10.53658
642.397	23.18258
642.597	-2.10736
642.796	50.58386
642.996	-8.42931
643.196	12.64469
643.395	-61.10358
643.595	-0
643.795	-42.14263
643.994	33.72107
644.194	-23.17966
644.394	65.34002
644.593	35.82884
644.793	-35.82187
644.992	151.79091
645.192	-52.67674
645.392	27.39791
645.591	59.01582
645.791	-61.10358
645.99	-101.12544
646.19	59.01582
646.389	31.61332
646.589	44.26014
646.788	21.07496
646.987	48.47593
647.187	29.5056
647.386	14.75222
647.586	-21.07254
647.785	8.4297
647.984	14.75222
648.184	-44.2495
648.383	-6.32202
648.582	-56.89021
648.782	27.39791
648.981	-8.42931
649.18	2.10739
649.38	33.72107
649.579	16.85977
649.778	-35.82187
649.977	-67.42343
650.177	16.85977
650.376	75.88082
650.575	33.72107
650.774	18.96735
650.973	16.85977
651.173	61.12386
651.372	10.53718
651.571	42.15228
651.77	67.44814
651.969	10.53718
652.168	69.55627
652.367	-33.71489
652.566	-42.14263
652.765	33.72107
652.964	59.01582
653.163	63.23193
653.362	18.96735
653.561	-56.89021
653.76	40.04444
653.959	-10.53658
654.158	25.29023
654.357	23.18258
654.556	59.01582
654.755	-0
654.954	-2.10736
655.153	84.31387
655.352	-23.17966
655.551	14.75222
655.749	42.15228
655.948	8.4297
656.147	-77.95602
656.346	-8.42931
656.545	4.2148
656.743	44.26014
656.942	29.5056
657.141	4.2148
657.34	54.79979
657.538	8.4297
657.737	-12.64382
657.936	40.04444
658.135	-82.16888
658.333	27.39791
658.532	56.90779
658.731	33.72107
658.929	48.47593
659.128	-35.82187
659.326	16.85977
659.525	-18.9654
659.724	105.39804
659.922	-6.32202
660.121	23.18258
660.319	48.47593
660.518	48.47593
660.716	8.4297
660.915	-2.10736
661.113	90.63889
661.312	16.85977
661.51	29.5056
661.709	6.32224
661.907	44.26014
662.105	-16.85823
662.304	-25.28676
662.502	82.20557
662.701	18.96735
662.899	-10.53658
663.097	59.01582
663.296	10.53718
663.494	59.01582
663.692	-8.42931
663.891	37.93663
664.089	50.58386
664.287	-10.53658
664.485	14.75222
664.684	8.4297
664.882	-8.42931
665.08	-2.10736
665.278	-94.80682
665.476	25.29023
665.675	75.88082
665.873	-44.2495
666.071	48.47593
666.269	56.90779
666.467	-23.17966
666.665	61.12386
666.863	-16.85823
667.061	-6.32202
667.259	-33.71489
667.457	8.4297
667.655	82.20557
667.853	21.07496
668.051	-2.10736
668.249	-33.71489
668.447	-18.9654
668.645	2.10739
668.843	-6.32202
669.041	31.61332
669.239	48.47593
669.437	23.18258
669.635	-12.64382
669.833	-40.03573
670.031	2.10739
670.229	48.47593
670.426	48.47593
670.624	25.29023
670.822	52.69182
671.02	-2.10736
671.218	10.53718
671.415	82.20557
671.613	50.58386
671.811	-18.9654
672.009	52.69182
672.206	14.75222
672.404	2.10739
672.602	35.82884
672.799	18.96735
672.997	25.29023
673.195	56.90779
673.392	18.96735
673.59	-2.10736
673.788	-23.17966
673.985	-12.64382
674.183	-16.85823
674.38	-37.92881
674.578	23.18258
674.775	73.77262
674.973	-23.17966
675.17	37.93663
675.368	6.32224
675.565	23.18258
675.763	35.82884
675.96	-21.07254
676.158	-8.42931
676.355	4.2148
676.553	84.31387
676.75	52.69182
676.947	10.53718
677.145	71.66443
677.342	27.39791
677.539	-0
677.737	40.04444
677.934	-52.67674
678.131	16.85977
678.329	82.20557
678.526	4.2148
678.723	6.32224
678.92	35.82884
679.118	50.58386
679.315	21.07496
679.512	16.85977
679.709	-52.67674
679.906	-6.32202
680.104	-27.39383
680.301	44.26014
680.498	-18.9654
680.695	35.82884
680.892	25.29023
681.089	61.12386
681.286	-48.46317
681.483	-6.32202
681.68	73.77262
681.877	61.12386
682.075	54.79979
682.272	48.47593
682.469	18.96735
682.665	-8.42931
682.862	-90.59428
683.059	23.18258
683.256	40.04444
683.453	-10.53658
683.65	48.47593
683.847	54.79979
684.044	-2.10736
684.241	-27.39383
684.438	23.18258
684.635	-63.21022
684.831	52.69182
685.028	-23.17966
685.225	29.5056
685.422	14.75222
685.619	27.39791
685.815	44.26014
686.012	8.4297
686.209	-35.82187
686.405	18.96735
686.602	-27.39383
686.799	23.18258
686.996	40.04444
687.192	2.10739
687.389	73.77262
687.586	-10.53658
687.782	65.34002
687.979	27.39791
688.175	16.85977
688.372	73.77262
688.568	29.5056
688.765	35.82884
688.962	6.32224
689.158	48.47593
689.355	52.69182
689.551	48.47593
689.748	73.77262
689.944	-35.82187
690.14	86.42218
690.337	-18.9654
690.533	-2.10736
690.73	44.26014
690.926	-25.28676
691.123	8.4297
691.319	42.15228
691.515	-8.42931
691.712	42.15228
691.908	-31.6079
692.104	-14.75104
692.301	-25.28676
692.497	12.64469
692.693	10.53718
692.889	-29.50088
693.086	61.12386
693.282	-8.42931
693.478	-29.50088
693.674	-25.28676
693.87	-37.92881
694.067	12.64469
694.263	84.31387
694.459	4.2148
694.655	12.64469
694.851	31.61332
695.047	12.64469
695.243	44.26014
695.439	14.75222
695.635	8.4297
695.831	-48.46317
696.027	-103.2316
696.224	-12.64382
696.42	-56.89021
696.615	-27.39383
696.811	-8.42931
697.007	-10.53658
697.203	21.07496
697.399	-21.07254
697.595	31.61332
697.791	27.39791
697.987	80.0973
698.183	52.69182
698.379	-2.10736
698.575	14.75222
698.77	31.61332
698.966	40.04444
699.162	-8.42931
699.358	-33.71489
699.554	-27.39383
699.749	23.18258
699.945	21.07496
700.141	67.44814
700.337	2.10739
700.532	18.96735
700.728	-27.39383
700.924	29.5056
701.119	-2.10736
701.315	75.88082
701.511	50.58386
701.706	-2.10736
701.902	16.85977
702.097	23.18258
702.293	-23.17966
702.489	-27.39383
702.684	-4.2147
702.88	99.07256
703.075	-21.07254
703.271	99.07256
703.466	-25.28676
703.662	109.61514
703.857	65.34002
704.053	-46.35635
704.248	40.04444
704.443	52.69182
704.639	27.39791
704.834	14.75222
705.03	103.28953
705.225	33.72107
705.42	-46.35635
705.616	90.63889
705.811	-0
706.006	-21.07254
706.202	61.12386
706.397	54.79979
706.592	120.15828
706.787	113.83233
706.983	8.4297
707.178	-27.39383
707.373	23.18258
707.568	25.29023
707.763	35.82884
707.959	4.2148
708.154	31.61332
708.349	-18.9654
708.544	65.34002
708.739	23.18258
708.934	23.18258
709.129	33.72107
709.324	2.10739
709.519	-0
709.714	40.04444
709.909	75.88082
710.104	27.39791
710.299	59.01582
710.494	-25.28676
710.689	-31.6079
710.884	-35.82187
711.079	-0
711.274	33.72107
711.469	52.69182
711.664	-6.32202
711.859	-10.53658
712.054	-2.10736
712.249	-50.56997
712.443	52.69182
712.638	14.75222
712.833	48.47593
713.028	59.01582
713.223	25.29023
713.417	-10.53658
713.612	59.01582
713.807	44.26014
714.002	23.18258
714.196	-2.10736
714.391	-35.82187
714.586	-42.14263
714.78	31.61332
714.975	-27.39383
715.17	40.04444
715.364	25.29023
715.559	120.15828
715.754	-10.53658
715.948	8.4297
716.143	18.96735
716.337	23.18258
716.532	69.55627
716.726	-46.35635
716.921	-46.35635
717.115	-16.85823
717.31	42.15228
717.504	-33.71489
717.699	-33.71489
717.893	94.85568
718.088	42.15228
718.282	35.82884
718.476	-31.6079
718.671	50.58386
718.865	56.90779
719.059	-18.9654
719.254	33.72107
719.448	67.44814
719.642	-48.46317
719.837	56.90779
720.031	21.07496
720.225	50.58386
720.419	2.10739
720.614	27.39791
720.808	-14.75104
721.002	-6.32202
721.196	-61.10358
721.39	-2.10736
721.585	29.5056
721.779	-21.07254
721.973	35.82884
722.167	18.96735
722.361	2.10739
722.555	124.37568
722.749	16.85977
722.943	-105.33773
723.137	75.88082
723.331	18.96735
723.525	8.4297
723.719	50.58386
723.913	27.39791
724.107	18.96735
724.301	-4.2147
724.495	-35.82187
724.689	4.2148
724.883	-33.71489
725.077	-18.9654
725.271	59.01582
725.465	-31.6079
725.659	10.53718
725.853	-73.74306
726.046	50.58386
726.24	-10.53658
726.434	-10.53658
726.628	-12.64382
726.822	12.64469
727.015	-2.10736
727.209	50.58386
727.403	44.26014
727.596	33.72107
727.79	65.34002
727.984	61.12386
728.177	40.04444
728.371	23.18258
728.565	-16.85823
728.758	27.39791
728.952	25.29023
729.146	56.90779
729.339	-8.42931
729.533	-25.28676
729.726	2.10739
729.92	-27.39383
730.113	59.01582
730.307	-10.53658
730.5	-77.95602
730.694	-18.9654
730.887	4.2148
731.081	52.69182
731.274	33.72107
731.468	40.04444
731.661	-48.46317
731.854	16.85977
732.048	-0
732.241	23.18258
732.435	12.64469
732.628	8.4297
732.821	-10.53658
733.014	84.31387
733.208	-23.17966
733.401	-8.42931
733.594	35.82884
733.788	25.29023
733.981	-4.2147
734.174	-14.75104
734.367	40.04444
734.56	59.01582
734.754	67.44814
734.947	2.10739
735.14	-65.31684
735.333	14.75222
735.526	-65.31684
735.719	21.07496
735.912	27.39791
736.105	-82.16888
736.298	42.15228
736.491	-10.53658
736.684	-40.03573
736.877	8.4297
737.07	56.90779
737.263	16.85977
737.456	14.75222
737.649	6.32224
737.842	23.18258
738.035	16.85977
738.228	-16.85823
738.421	-25.28676
738.614	56.90779
738.807	40.04444
739	-35.82187
739.192	23.18258
739.385	16.85977
739.578	77.98905
739.771	6.32224
739.964	16.85977
740.156	12.64469
740.349	86.42218
740.542	-44.2495
740.735	103.28953
740.927	48.47593
741.12	-40.03573
741.313	48.47593
741.505	18.96735
741.698	14.75222
741.891	-42.14263
742.083	-2.10736
742.276	18.96735
742.468	-94.80682
742.661	42.15228
742.854	8.4297
743.046	-16.85823
743.239	-52.67674
743.431	-2.10736
743.624	6.32224
743.816	-10.53658
744.009	25.29023
744.201	-42.14263
744.393	40.04444
744.586	92.74727
744.778	65.34002
744.971	56.90779
745.163	-48.46317
745.355	48.47593
745.548	-21.07254
745.74	16.85977
745.932	25.29023
746.125	10.53718
746.317	-23.17966
746.509	29.5056
746.702	21.07496
746.894	31.61332
747.086	-2.10736
747.278	16.85977
747.471	103.28953
747.663	-31.6079
747.855	6.32224
748.047	-52.67674
748.239	8.4297
748.431	-0
748.623	-48.46317
748.815	73.77262
749.008	2.10739
749.2	4.2148
749.392	-8.42931
749.584	-6.32202
749.776	33.72107
749.968	-4.2147
750.16	-25.28676
750.352	46.36803
750.544	6.32224
750.736	-50.56997
750.928	-21.07254
751.12	42.15228
751.311	-2.10736
751.503	-52.67674
751.695	2.10739
751.887	-42.14263
752.079	12.64469
752.271	16.85977
752.463	-29.50088
752.654	-23.17966
752.846	16.85977
753.038	27.39791
753.23	-50.56997
753.421	65.34002
753.613	-94.80682
753.805	-12.64382
753.997	107.50658
754.188	48.47593
754.38	-23.17966
754.572	77.98905
754.763	61.12386
754.955	35.82884
755.146	63.23193
755.338	-35.82187
755.53	12.64469
755.721	46.36803
755.913	14.75222
756.104	-18.9654
756.296	6.32224
756.487	6.32224
756.679	-44.2495
756.87	-58.9969
757.062	-40.03573
757.253	-25.28676
757.445	-40.03573
757.636	59.01582
757.827	8.4297
758.019	12.64469
758.21	2.10739
758.401	54.79979
758.593	6.32224
758.784	-44.2495
758.975	-44.2495
759.167	82.20557
759.358	-4.2147
759.549	-6.32202
759.74	-73.74306
759.932	-2.10736
760.123	23.18258
760.314	48.47593
760.505	-18.9654
760.696	-0
760.888	23.18258
761.079	33.72107
761.27	50.58386
761.461	-2.10736
761.652	-31.6079
761.843	42.15228
762.034	33.72107
762.225	10.53718
762.416	86.42218
762.607	35.82884
762.798	-0
762.989	2.10739
763.18	14.75222
763.371	-18.9654
763.562	21.07496
763.753	128.59318
763.944	6.32224
764.135	-10.53658
764.326	4.2148
764.517	-44.2495
764.708	35.82884
764.899	18.96735
765.089	4.2148
765.28	-6.32202
765.471	-2.10736
765.662	-16.85823
765.853	35.82884
766.043	29.5056
766.234	-21.07254
766.425	-27.39383
766.615	-35.82187
766.806	-0
766.997	14.75222
767.187	-0
767.378	4.2148
767.569	40.04444
767.759	-12.64382
767.95	6.32224
768.141	82.20557
768.331	48.47593
768.522	-8.42931
768.712	88.53052
768.903	-8.42931
769.093	-33.71489
769.284	23.18258
769.474	23.18258
769.665	-40.03573
769.855	23.18258
770.046	23.18258
770.236	-35.82187
770.426	6.32224
770.617	-12.64382
770.807	4.2148
770.998	31.61332
771.188	-14.75104
771.378	18.96735
771.569	40.04444
771.759	-73.74306
771.949	54.79979
772.139	6.32224
772.33	35.82884
772.52	46.36803
772.71	69.55627
772.9	8.4297
773.09	-18.9654
773.281	16.85977
773.471	-21.07254
773.661	50.58386
773.851	4.2148
774.041	71.66443
774.231	14.75222
774.421	-23.17966
774.611	14.75222
774.802	86.42218
774.992	29.5056
775.182	16.85977
775.372	-4.2147
775.562	-14.75104
775.752	25.29023
775.942	21.07496
776.131	31.61332
776.321	18.96735
776.511	-35.82187
776.701	65.34002
776.891	25.29023
777.081	-10.53658
777.271	48.47593
777.461	31.61332
777.651	-16.85823
777.84	-14.75104
778.03	-18.9654
778.22	16.85977
778.41	-35.82187
778.599	82.20557
778.789	23.18258
778.979	-8.42931
779.169	-29.50088
779.358	23.18258
779.548	23.18258
779.738	-12.64382
779.927	-0
780.117	50.58386
780.307	6.32224
780.496	63.23193
780.686	-0
780.875	-10.53658
781.065	-44.2495
781.254	31.61332
781.444	65.34002
781.633	-48.46317
781.823	40.04444
782.012	56.90779
782.202	33.72107
782.391	52.69182
782.581	-61.10358
782.77	29.5056
782.96	8.4297
783.149	6.32224
783.338	-2.10736
783.528	29.5056
783.717	4.2148
783.906	18.96735
784.096	6.32224
784.285	-44.2495
784.474	4.2148
784.663	90.63889
784.853	50.58386
785.042	6.32224
785.231	-0
785.42	94.85568
785.61	42.15228
785.799	-35.82187
785.988	6.32224
786.177	14.75222
786.366	2.10739
786.555	-29.50088
786.744	6.32224
786.933	-25.28676
787.122	-23.17966
787.312	31.61332
787.501	18.96735
787.69	-27.39383
787.879	8.4297
788.068	27.39791
788.257	48.47593
788.445	4.2148
788.634	33.72107
788.823	4.2148
789.012	23.18258
789.201	54.79979
789.39	-27.39383
789.579	69.55627
789.768	-58.9969
789.957	14.75222
790.145	6.32224
790.334	65.34002
790.523	61.12386
790.712	-35.82187
790.9	42.15228
791.089	48.47593
791.278	31.61332
791.467	2.10739
791.655	-25.28676
791.844	-33.71489
792.033	-6.32202
792.221	-86.38163
792.41	-61.10358
792.599	-10.53658
792.787	-2.10736
792.976	-58.9969
793.164	-35.82187
793.353	-33.71489
793.541	-14.75104
793.73	75.88082
793.918	12.64469
794.107	52.69182
794.295	-14.75104
794.484	-18.9654
794.672	27.39791
794.861	52.69182
795.049	-0
795.238	14.75222
795.426	40.04444
795.614	14.75222
795.803	-56.89021
795.991	4.2148
796.179	-25.28676
796.368	31.61332
796.556	50.58386
796.744	67.44814
796.932	37.93663
797.121	6.32224
797.309	-27.39383
797.497	-4.2147
797.685	-14.75104
797.874	82.20557
798.062	101.18103
798.25	10.53718
798.438	52.69182
798.626	14.75222
798.814	-42.14263
799.002	90.63889
799.19	67.44814
799.378	23.18258
799.566	65.34002
799.755	27.39791
799.943	73.77262
800.131	6.32224
800.318	-50.56997
800.506	31.61332
800.694	48.47593
800.882	-88.48797
801.07	35.82884
801.258	6.32224
801.446	63.23193
801.634	16.85977
801.822	-16.85823
802.01	-4.2147
802.197	6.32224
802.385	2.10739
802.573	50.58386
802.761	-35.82187
802.949	-8.42931
803.136	35.82884
803.324	16.85977
803.512	37.93663
803.699	2.10739
803.887	-33.71489
804.075	14.75222
804.262	-6.32202
804.45	33.72107
804.638	-2.10736
804.825	59.01582
805.013	16.85977
805.201	-18.9654
805.388	-8.42931
805.576	-14.75104
805.763	-31.6079
805.951	-40.03573
806.138	52.69182
806.326	2.10739
806.513	-27.39383
806.701	-2.10736
806.888	50.58386
807.075	23.18258
807.263	21.07496
807.45	48.47593
807.638	77.98905
807.825	52.69182
808.012	-42.14263
808.2	-0
808.387	8.4297
808.574	4.2148
808.761	18.96735
808.949	2.10739
809.136	-2.10736
809.323	71.66443
809.51	52.69182
809.698	59.01582
809.885	77.98905
810.072	-8.42931
810.259	16.85977
810.446	42.15228
810.633	77.98905
810.82	-25.28676
811.008	-18.9654
811.195	134.91958
811.382	14.75222
811.569	75.88082
811.756	4.2148
811.943	6.32224
812.13	-14.75104
812.317	-18.9654
812.504	6.32224
812.691	-10.53658
812.878	61.12386
813.064	-10.53658
813.251	31.61332
813.438	61.12386
813.625	44.26014
813.812	40.04444
813.999	-33.71489
814.186	-14.75104
814.372	48.47593
814.559	-58.9969
814.746	59.01582
814.933	-8.42931
815.12	16.85977
815.306	-18.9654
815.493	-44.2495
815.68	56.90779
815.866	25.29023
816.053	21.07496
816.24	14.75222
816.426	-82.16888
816.613	56.90779
816.799	-6.32202
816.986	-35.82187
817.173	56.90779
817.359	31.61332
817.546	-27.39383
817.732	12.64469
817.919	6.32224
818.105	-14.75104
818.292	-46.35635
818.478	14.75222
818.665	-0
818.851	75.88082
819.037	6.32224
819.224	-8.42931
819.41	-18.9654
819.597	42.15228
819.783	-6.32202
819.969	2.10739
820.156	23.18258
820.342	-0
820.528	-16.85823
820.714	52.69182
820.901	56.90779
821.087	10.53718
821.273	48.47593
821.459	103.28953
821.646	8.4297
821.832	27.39791
822.018	88.53052
822.204	-10.53658
822.39	23.18258
822.576	21.07496
822.762	-25.28676
822.948	-2.10736
823.134	-61.10358
823.32	6.32224
823.507	-67.42343
823.693	71.66443
823.879	-18.9654
824.065	4.2148
824.25	-35.82187
824.436	-67.42343
824.622	-14.75104
824.808	31.61332
824.994	-0
825.18	16.85977
825.366	25.29023
825.552	-6.32202
825.738	-16.85823
825.923	12.64469
826.109	4.2148
826.295	-77.95602
826.481	-31.6079
826.667	-31.6079
826.852	65.34002
827.038	35.82884
827.224	14.75222
827.409	40.04444
827.595	-29.50088
827.781	-18.9654
827.966	-0
828.152	-27.39383
828.338	-25.28676
828.523	2.10739
828.709	10.53718
828.894	40.04444
829.08	35.82884
829.266	33.72107
829.451	-42.14263
829.637	63.23193
829.822	-14.75104
830.008	-0
830.193	-44.2495
830.378	-67.42343
830.564	46.36803
830.749	16.85977
830.935	48.47593
831.12	33.72107
831.305	18.96735
831.491	25.29023
831.676	-109.5499
831.861	-27.39383
832.047	33.72107
832.232	6.32224
832.417	21.07496
832.602	16.85977
832.788	-18.9654
832.973	4.2148
833.158	63.23193
833.343	33.72107
833.528	23.18258
833.714	-44.2495
833.899	-33.71489
834.084	-14.75104
834.269	-25.28676
834.454	-33.71489
834.639	-16.85823
834.824	52.69182
835.009	27.39791
835.194	29.5056
835.379	-0
835.564	33.72107
835.749	-27.39383
835.934	61.12386
836.119	-6.32202
836.304	86.42218
836.489	-58.9969
836.674	48.47593
836.859	31.61332
837.044	-27.39383
837.228	-6.32202
837.413	-40.03573
837.598	31.61332
837.783	65.34002
837.968	-4.2147
838.152	-14.75104
838.337	31.61332
838.522	73.77262
838.707	21.07496
838.891	-35.82187
839.076	71.66443
839.261	-8.42931
839.445	-8.42931
839.63	-2.10736
839.815	8.4297
839.999	35.82884
840.184	-31.6079
840.368	21.07496
840.553	4.2148
840.737	-35.82187
840.922	29.5056
841.106	14.75222
841.291	42.15228
841.475	-8.42931
841.66	-27.39383
841.844	63.23193
842.029	-10.53658
842.213	25.29023
842.397	42.15228
842.582	44.26014
842.766	6.32224
842.951	8.4297
843.135	14.75222
843.319	61.12386
843.504	-31.6079
843.688	48.47593
843.872	-6.32202
844.056	-75.84956
844.241	-23.17966
844.425	23.18258
844.609	6.32224
844.793	35.82884
844.977	27.39791
845.161	33.72107
845.346	-23.17966
845.53	6.32224
845.714	18.96735
845.898	-27.39383
846.082	31.61332
846.266	29.5056
846.45	40.04444
846.634	6.32224
846.818	10.53718
847.002	-8.42931
847.186	-25.28676
847.37	-16.85823
847.554	37.93663
847.738	18.96735
847.922	-96.91306
848.106	59.01582
848.29	48.47593
848.473	52.69182
848.657	-31.6079
848.841	14.75222
849.025	23.18258
849.209	33.72107
849.392	10.53718
849.576	-14.75104
849.76	23.18258
849.944	37.93663
850.127	-23.17966
850.311	65.34002
850.495	54.79979
850.678	56.90779
850.862	-6.32202
851.046	35.82884
851.229	-23.17966
851.413	65.34002
851.596	-69.53
851.78	-2.10736
851.964	8.4297
852.147	-10.53658
852.331	2.10739
852.514	-2.10736
852.698	99.07256
852.881	-35.82187
853.065	33.72107
853.248	-27.39383
853.431	-42.14263
853.615	65.34002
853.798	56.90779
853.982	-4.2147
854.165	31.61332
854.348	2.10739
854.532	-84.27527
854.715	35.82884
854.898	-12.64382
855.081	48.47593
855.265	56.90779
855.448	-2.10736
855.631	18.96735
855.814	6.32224
855.997	86.42218
856.181	-33.71489
856.364	-52.67674
856.547	12.64469
856.73	82.20557
856.913	65.34002
857.096	18.96735
857.279	109.61514
857.462	10.53718
857.645	-40.03573
857.828	-10.53658
858.011	23.18258
858.194	14.75222
858.377	8.4297
858.56	65.34002
858.743	65.34002
858.926	-23.17966
859.109	99.07256
859.292	16.85977
859.475	14.75222
859.658	77.98905
859.841	23.18258
860.023	40.04444
860.206	-61.10358
860.389	25.29023
860.572	14.75222
860.755	-50.56997
860.937	25.29023
861.12	29.5056
861.303	42.15228
861.486	-10.53658
861.668	132.81075
861.851	-0
862.034	27.39791
862.216	-48.46317
862.399	107.50658
862.581	-52.67674
862.764	35.82884
862.947	23.18258
863.129	65.34002
863.312	-6.32202
863.494	-25.28676
863.677	59.01582
863.859	23.18258
864.042	23.18258
864.224	-61.10358
864.406	-8.42931
864.589	37.93663
864.771	-44.2495
864.954	2.10739
865.136	56.90779
865.318	-31.6079
865.501	21.07496
865.683	-16.85823
865.865	-23.17966
866.048	-0
866.23	-42.14263
866.412	12.64469
866.594	-37.92881
866.777	-10.53658
866.959	99.07256
867.141	42.15228
867.323	-4.2147
867.505	29.5056
867.687	-16.85823
867.869	56.90779
868.052	-6.32202
868.234	16.85977
868.416	6.32224
868.598	-31.6079
868.78	18.96735
868.962	-12.64382
869.144	-16.85823
869.326	31.61332
869.508	-27.39383
869.69	-56.89021
869.872	40.04444
870.054	-27.39383
870.236	35.82884
870.417	18.96735
870.599	31.61332
870.781	61.12386
870.963	-0
871.145	-65.31684
871.327	6.32224
871.508	-10.53658
871.69	16.85977
871.872	37.93663
872.054	2.10739
872.235	56.90779
872.417	-50.56997
872.599	94.85568
872.78	-82.16888
872.962	8.4297
873.144	-40.03573
873.325	-0
873.507	-4.2147
873.689	14.75222
873.87	-71.63655
874.052	16.85977
874.233	31.61332
874.415	-18.9654
874.596	-12.64382
874.778	25.29023
874.959	12.64469
875.141	82.20557
875.322	6.32224
875.503	44.26014
875.685	2.10739
875.866	25.29023
876.048	-12.64382
876.229	63.23193
876.41	-27.39383
876.592	23.18258
876.773	23.18258
876.954	61.12386
877.136	23.18258
877.317	52.69182
877.498	-40.03573
877.679	-23.17966
877.86	69.55627
878.042	35.82884
878.223	27.39791
878.404	27.39791
878.585	-44.2495
878.766	-29.50088
878.947	35.82884
879.128	50.58386
879.309	18.96735
879.49	35.82884
879.672	33.72107
879.853	25.29023
880.034	8.4297
880.215	-18.9654
880.396	31.61332
880.576	2.10739
880.757	63.23193
880.938	-10.53658
881.119	33.72107
881.3	-0
881.481	18.96735
881.662	80.0973
881.843	-44.2495
882.023	29.5056
882.204	-6.32202
882.385	-25.28676
882.566	77.98905
882.747	4.2148
882.927	-2.10736
883.108	6.32224
883.289	40.04444
883.469	-8.42931
883.65	35.82884
883.831	-18.9654
884.011	40.04444
884.192	14.75222
884.373	-35.82187
884.553	61.12386
884.734	77.98905
884.914	8.4297
885.095	-31.6079
885.275	65.34002
885.456	-0
885.636	59.01582
885.817	-18.9654
885.997	-31.6079
886.178	101.18103
886.358	52.69182
886.538	-10.53658
886.719	67.44814
886.899	25.29023
887.08	42.15228
887.26	-25.28676
887.44	56.90779
887.621	-6.32202
887.801	-8.42931
887.981	48.47593
888.161	73.77262
888.342	-14.75104
888.522	73.77262
888.702	6.32224
888.882	31.61332
889.062	96.96411
889.242	16.85977
889.423	27.39791
889.603	6.32224
889.783	6.32224
889.963	-27.39383
890.143	65.34002
890.323	21.07496
890.503	-75.84956
890.683	-29.50088
890.863	82.20557
891.043	31.61332
891.223	25.29023
891.403	77.98905
891.583	6.32224
891.763	-31.6079
891.943	-52.67674
892.122	52.69182
892.302	69.55627
892.482	-2.10736
892.662	33.72107
892.842	-35.82187
893.022	54.79979
893.201	23.18258
893.381	10.53718
893.561	50.58386
893.741	-31.6079
893.92	59.01582
894.1	-4.2147
894.28	-42.14263
894.459	-2.10736
894.639	48.47593
894.819	73.77262
894.998	27.39791
895.178	12.64469
895.357	56.90779
895.537	10.53718
895.716	-4.2147
895.896	6.32224
896.075	-27.39383
896.255	48.47593
896.434	94.85568
896.614	77.98905
896.793	-10.53658
896.973	10.53718
897.152	33.72107
897.331	-86.38163
897.511	-14.75104
897.69	40.04444
897.87	16.85977
898.049	-23.17966
898.228	44.26014
898.407	-2.10736
898.587	18.96735
898.766	40.04444
898.945	25.29023
899.124	31.61332
899.304	65.34002
899.483	14.75222
899.662	-25.28676
899.841	44.26014
900.02	44.26014
900.199	-2.10736
900.378	40.04444
900.557	27.39791
900.737	4.2148
900.916	75.88082
901.095	-4.2147
901.274	31.61332
901.453	65.34002
901.632	35.82884
901.811	25.29023
901.989	8.4297
902.168	-42.14263
902.347	10.53718
902.526	25.29023
902.705	-56.89021
902.884	-2.10736
903.063	-48.46317
903.242	42.15228
903.42	14.75222
903.599	101.18103
903.778	35.82884
903.957	40.04444
904.135	-4.2147
904.314	10.53718
904.493	18.96735
904.672	-33.71489
904.85	-14.75104
905.029	75.88082
905.207	16.85977
905.386	31.61332
905.565	-16.85823
905.743	18.96735
905.922	-44.2495
906.1	52.69182
906.279	-35.82187
906.457	-6.32202
906.636	-31.6079
906.814	27.39791
906.993	8.4297
907.171	-6.32202
907.35	42.15228
907.528	12.64469
907.707	82.20557
907.885	56.90779
908.063	-14.75104
908.242	14.75222
908.42	25.29023
908.598	99.07256
908.777	-8.42931
908.955	73.77262
909.133	40.04444
909.311	-35.82187
909.49	-25.28676
909.668	-25.28676
909.846	14.75222
910.024	44.26014
910.202	42.15228
910.38	48.47593
910.559	16.85977
910.737	44.26014
910.915	90.63889
911.093	33.72107
911.271	-2.10736
911.449	-35.82187
911.627	8.4297
911.805	40.04444
911.983	-0
912.161	12.64469
912.339	2.10739
912.517	-29.50088
912.695	40.04444
912.872	-12.64382
913.05	71.66443
913.228	88.53052
913.406	33.72107
913.584	-71.63655
913.762	-25.28676
913.939	12.64469
914.117	52.69182
914.295	2.10739
914.473	14.75222
914.65	-2.10736
914.828	23.18258
915.006	56.90779
915.184	40.04444
915.361	-4.2147
915.539	48.47593
915.716	35.82884
915.894	10.53718
916.072	48.47593
916.249	16.85977
916.427	25.29023
916.604	-35.82187
916.782	59.01582
916.959	-40.03573
917.137	-18.9654
917.314	16.85977
917.492	59.01582
917.669	6.32224
917.847	-23.17966
918.024	-27.39383
918.201	-0
918.379	10.53718
918.556	-8.42931
918.733	10.53718
918.911	65.34002
919.088	4.2148
919.265	-0
919.442	6.32224
919.62	99.07256
919.797	33.72107
919.974	31.61332
920.151	-8.42931
920.328	40.04444
920.506	50.58386
920.683	-0
920.86	-10.53658
921.037	14.75222
921.214	-8.42931
921.391	-54.78349
921.568	56.90779
921.745	12.64469
921.922	-10.53658
922.099	-0
922.276	-56.89021
922.453	12.64469
922.63	75.88082
922.807	65.34002
922.984	-16.85823
923.161	-16.85823
923.338	27.39791
923.514	10.53718
923.691	-31.6079
923.868	48.47593
924.045	-42.14263
924.222	-23.17966
924.399	16.85977
924.575	2.10739
924.752	-33.71489
924.929	29.5056
925.105	-48.46317
925.282	59.01582
925.459	-2.10736
925.635	-27.39383
925.812	-8.42931
925.989	-0
926.165	-6.32202
926.342	-10.53658
926.518	-35.82187
926.695	21.07496
926.871	27.39791
927.048	18.96735
927.224	35.82884
927.401	75.88082
927.577	8.4297
927.754	12.64469
927.93	-2.10736
928.107	-25.28676
928.283	-107.44383
928.459	12.64469
928.636	48.47593
928.812	12.64469
928.988	50.58386
929.165	40.04444
929.341	-33.71489
929.517	44.26014
929.693	56.90779
929.87	16.85977
930.046	111.72373
930.222	-4.2147
930.398	40.04444
930.574	4.2148
930.751	-10.53658
930.927	77.98905
931.103	2.10739
931.279	-10.53658
931.455	-77.95602
931.631	12.64469
931.807	25.29023
931.983	29.5056
932.159	-10.53658
932.335	-10.53658
932.511	59.01582
932.687	-27.39383
932.863	4.2148
933.039	40.04444
933.215	-84.27527
933.391	-21.07254
933.566	14.75222
933.742	25.29023
933.918	37.93663
934.094	16.85977
934.27	-48.46317
934.445	-18.9654
934.621	-18.9654
934.797	-18.9654
934.973	16.85977
935.148	35.82884
935.324	61.12386
935.5	33.72107
935.675	-14.75104
935.851	27.39791
936.027	23.18258
936.202	23.18258
936.378	44.26014
936.553	33.72107
936.729	-2.10736
936.904	40.04444
937.08	31.61332
937.255	2.10739
937.431	-54.78349
937.606	71.66443
937.782	27.39791
937.957	44.26014
938.133	29.5056
938.308	-46.35635
938.483	42.15228
938.659	14.75222
938.834	-18.9654
939.009	-21.07254
939.185	18.96735
939.36	-2.10736
939.535	-35.82187
939.71	-10.53658
939.886	-10.53658
940.061	50.58386
940.236	35.82884
940.411	-0
940.586	-33.71489
940.761	73.77262
940.937	65.34002
941.112	61.12386
941.287	-40.03573
941.462	48.47593
941.637	48.47593
941.812	25.29023
941.987	-25.28676
942.162	-75.84956
942.337	14.75222
942.512	-10.53658
942.687	86.42218
942.862	48.47593
943.037	14.75222
943.212	-80.06246
943.386	2.10739
943.561	23.18258
943.736	-6.32202
943.911	88.53052
944.086	29.5056
944.26	65.34002
944.435	44.26014
944.61	31.61332
944.785	6.32224
944.959	80.0973
945.134	35.82884
945.309	56.90779
945.483	56.90779
945.658	18.96735
945.833	-23.17966
946.007	-31.6079
946.182	14.75222
946.357	2.10739
946.531	12.64469
946.706	80.0973
946.88	-52.67674
947.055	48.47593
947.229	56.90779
947.404	107.50658
947.578	-2.10736
947.752	40.04444
947.927	6.32224
948.101	48.47593
948.276	65.34002
948.45	2.10739
948.624	25.29023
948.799	48.47593
948.973	16.85977
949.147	90.63889
949.321	29.5056
949.496	40.04444
949.67	2.10739
949.844	48.47593
950.018	-6.32202
950.193	25.29023
950.367	92.74727
950.541	25.29023
950.715	-2.10736
950.889	27.39791
951.063	6.32224
951.237	77.98905
951.411	27.39791
951.585	46.36803
951.759	12.64469
951.933	14.75222
952.107	-14.75104
952.281	48.47593
952.455	-14.75104
952.629	2.10739
952.803	-48.46317
952.977	27.39791
953.151	-61.10358
953.325	52.69182
953.499	-14.75104
953.672	48.47593
953.846	-29.50088
954.02	8.4297
954.194	-40.03573
954.368	65.34002
954.541	52.69182
954.715	21.07496
954.889	18.96735
955.062	16.85977
955.236	-8.42931
955.41	8.4297
955.583	-58.9969
955.757	65.34002
955.93	-56.89021
956.104	-35.82187
956.278	29.5056
956.451	-69.53
956.625	-44.2495
956.798	-16.85823
956.972	-52.67674
957.145	50.58386
957.319	8.4297
957.492	-21.07254
957.665	6.32224
957.839	44.26014
958.012	63.23193
958.185	-44.2495
958.359	-16.85823
958.532	27.39791
958.705	92.74727
958.879	4.2148
959.052	23.18258
959.225	12.64469
959.398	-48.46317
959.572	-14.75104
959.745	25.29023
959.918	42.15228
960.091	6.32224
960.264	23.18258
960.438	14.75222
960.611	-35.82187
960.784	-2.10736
960.957	29.5056
961.13	-14.75104
961.303	86.42218
961.476	-37.92881
961.649	35.82884
961.822	27.39791
961.995	56.90779
962.168	-25.28676
962.341	-23.17966
962.514	-37.92881
962.686	48.47593
962.859	-27.39383
963.032	-25.28676
963.205	14.75222
963.378	18.96735
963.551	-18.9654
963.723	31.61332
963.896	-12.64382
964.069	40.04444
964.242	25.29023
964.414	61.12386
964.587	56.90779
964.76	-42.14263
964.932	-58.9969
965.105	6.32224
965.278	23.18258
965.45	4.2148
965.623	67.44814
965.795	16.85977
965.968	23.18258
966.14	-10.53658
966.313	21.07496
966.485	-14.75104
966.658	-6.32202
966.83	10.53718
967.003	-2.10736
967.175	29.5056
967.348	10.53718
967.52	31.61332
967.692	92.74727
967.865	-25.28676
968.037	59.01582
968.209	14.75222
968.382	-6.32202
968.554	14.75222
968.726	31.61332
968.898	134.91958
969.071	16.85977
969.243	8.4297
969.415	107.50658
969.587	48.47593
969.759	-10.53658
969.932	8.4297
970.104	-12.64382
970.276	-8.42931
970.448	-35.82187
970.62	23.18258
970.792	31.61332
970.964	14.75222
971.136	-8.42931
971.308	-44.2495
971.48	14.75222
971.652	-25.28676
971.824	-18.9654
971.996	50.58386
972.168	-31.6079
972.339	-27.39383
972.511	23.18258
972.683	12.64469
972.855	-23.17966
973.027	-27.39383
973.199	48.47593
973.37	56.90779
973.542	90.63889
973.714	27.39791
973.886	48.47593
974.057	-58.9969
974.229	-42.14263
974.401	-8.42931
974.572	-56.89021
974.744	40.04444
974.915	-52.67674
975.087	-52.67674
975.259	48.47593
975.43	59.01582
975.602	-16.85823
975.773	-0
975.945	8.4297
976.116	16.85977
976.288	-33.71489
976.459	-40.03573
976.63	-27.39383
976.802	-44.2495
976.973	-23.17966
977.145	14.75222
977.316	2.10739
977.487	-2.10736
977.659	48.47593
977.83	103.28953
978.001	6.32224
978.172	10.53718
978.344	40.04444
978.515	23.18258
978.686	-2.10736
978.857	-16.85823
979.028	-8.42931
979.2	35.82884
979.371	-80.06246
979.542	-35.82187
979.713	-37.92881
979.884	35.82884
980.055	31.61332
980.226	29.5056
980.397	-2.10736
980.568	-56.89021
980.739	-6.32202
980.91	-18.9654
981.081	10.53718
981.252	6.32224
981.423	4.2148
981.594	-73.74306
981.765	-18.9654
981.936	61.12386
982.106	27.39791
982.277	46.36803
982.448	-40.03573
982.619	8.4297
982.79	69.55627
982.96	23.18258
983.131	8.4297
983.302	21.07496
983.472	-25.28676
983.643	12.64469
983.814	4.2148
983.984	14.75222
984.155	-31.6079
984.326	96.96411
984.496	2.10739
984.667	10.53718
984.837	31.61332
985.008	67.44814
985.178	12.64469
985.349	67.44814
985.519	67.44814
985.69	-25.28676
985.86	56.90779
986.031	29.5056
986.201	-12.64382
986.371	-33.71489
986.542	-16.85823
986.712	-16.85823
986.882	14.75222
987.053	18.96735
987.223	-4.2147
987.393	63.23193
987.563	-48.46317
987.734	6.32224
987.904	-16.85823
988.074	31.61332
988.244	50.58386
988.414	56.90779
988.585	8.4297
988.755	56.90779
988.925	54.79979
989.095	75.88082
989.265	2.10739
989.435	21.07496
989.605	2.10739
989.775	-10.53658
989.945	40.04444
990.115	25.29023
990.285	-23.17966
990.455	65.34002
990.625	-40.03573
990.795	-82.16888
990.965	4.2148
991.134	18.96735
991.304	33.72107
991.474	4.2148
991.644	31.61332
991.814	8.4297
991.984	103.28953
992.153	25.29023
992.323	-0
992.493	-37.92881
992.662	67.44814
992.832	56.90779
993.002	128.59318
993.171	-23.17966
993.341	27.39791
993.511	27.39791
993.68	-10.53658
993.85	-21.07254
994.019	46.36803
994.189	-2.10736
994.358	6.32224
994.528	-42.14263
994.697	10.53718
994.867	71.66443
995.036	-35.82187
995.206	-27.39383
995.375	40.04444
995.544	-8.42931
995.714	18.96735
995.883	27.39791
996.052	67.44814
996.222	-6.32202
996.391	-31.6079
996.56	29.5056
996.73	-2.10736
996.899	37.93663
997.068	-10.53658
997.237	-27.39383
997.406	14.75222
997.576	-2.10736
997.745	6.32224
997.914	-52.67674
998.083	69.55627
998.252	-52.67674
998.421	-14.75104
998.59	-0
998.759	-44.2495
998.928	-27.39383
999.097	-44.2495
999.266	77.98905
999.435	23.18258
999.604	23.18258
999.773	10.53718
999.942	67.44814
1000.111	44.26014
1000.28	-10.53658
1000.448	31.61332
1000.617	25.29023
1000.786	61.12386
1000.955	75.88082
1001.124	4.2148
1001.292	67.44814
1001.461	56.90779
1001.63	103.28953
1001.798	2.10739
1001.967	-4.2147
1002.136	6.32224
1002.304	-44.2495
1002.473	31.61332
1002.642	40.04444
1002.81	-33.71489
1002.979	25.29023
1003.147	-29.50088
1003.316	73.77262
1003.484	54.79979
1003.653	101.18103
1003.821	-18.9654
1003.99	33.72107
1004.158	-23.17966
1004.327	-50.56997
1004.495	-18.9654
1004.663	-8.42931
1004.832	6.32224
1005	23.18258
1005.168	52.69182
1005.337	23.18258
1005.505	-10.53658
1005.673	-0
1005.842	35.82884
1006.01	59.01582
1006.178	12.64469
1006.346	52.69182
1006.514	2.10739
1006.683	37.93663
1006.851	-8.42931
1007.019	12.64469
1007.187	37.93663
1007.355	6.32224
1007.523	-4.2147
1007.691	18.96735
1007.859	94.85568
1008.027	77.98905
1008.195	-40.03573
1008.363	-75.84956
1008.531	42.15228
1008.699	12.64469
1008.867	54.79979
1009.035	115.94096
1009.203	48.47593
1009.37	-18.9654
1009.538	44.26014
1009.706	23.18258
1009.874	82.20557
1010.042	-23.17966
1010.209	-54.78349
1010.377	-61.10358
1010.545	35.82884
1010.713	-14.75104
1010.88	21.07496
1011.048	6.32224
1011.216	14.75222
1011.383	-4.2147
1011.551	25.29023
1011.718	-40.03573
1011.886	-82.16888
1012.054	-27.39383
1012.221	12.64469
1012.389	42.15228
1012.556	-6.32202
1012.724	40.04444
1012.891	33.72107
1013.058	126.48442
1013.226	-14.75104
1013.393	-2.10736
1013.561	-8.42931
1013.728	40.04444
1013.895	-25.28676
1014.063	40.04444
1014.23	-21.07254
1014.397	4.2148
1014.565	8.4297
1014.732	-27.39383
1014.899	42.15228
1015.066	50.58386
1015.233	92.74727
1015.401	-35.82187
1015.568	82.20557
1015.735	2.10739
1015.902	-18.9654
1016.069	37.93663
1016.236	65.34002
1016.403	10.53718
1016.57	31.61332
1016.737	56.90779
1016.904	31.61332
1017.071	-2.10736
1017.238	48.47593
1017.405	2.10739
1017.572	23.18258
1017.739	8.4297
1017.906	-8.42931
1018.073	16.85977
1018.24	52.69182
1018.407	-16.85823
1018.573	-14.75104
1018.74	-29.50088
1018.907	75.88082
1019.074	-10.53658
1019.241	8.4297
1019.407	-113.76198
1019.574	-10.53658
1019.741	46.36803
1019.907	-25.28676
1020.074	73.77262
1020.241	31.61332
1020.407	-0
1020.574	40.04444
1020.74	-16.85823
1020.907	16.85977
1021.073	40.04444
1021.24	40.04444
1021.406	40.04444
1021.573	-18.9654
1021.739	23.18258
1021.906	-27.39383
1022.072	-16.85823
1022.239	-0
1022.405	-2.10736
1022.571	6.32224
1022.738	-2.10736
1022.904	33.72107
1023.07	21.07496
1023.237	56.90779
1023.403	44.26014
1023.569	99.07256
1023.735	99.07256
1023.902	-27.39383
1024.068	-6.32202
1024.234	-2.10736
1024.4	23.18258
1024.566	25.29023
1024.732	21.07496
1024.898	23.18258
1025.065	82.20557
1025.231	-23.17966
1025.397	10.53718
1025.563	-37.92881
1025.729	-29.50088
1025.895	-44.2495
1026.061	-23.17966
1026.227	94.85568
1026.392	33.72107
1026.558	40.04444
1026.724	27.39791
1026.89	-103.2316
1027.056	27.39791
1027.222	-0
1027.388	2.10739
1027.553	-10.53658
1027.719	44.26014
1027.885	-12.64382
1028.051	-18.9654
1028.216	8.4297
1028.382	-4.2147
1028.548	14.75222
1028.713	50.58386
1028.879	4.2148
1029.045	14.75222
1029.21	61.12386
1029.376	-23.17966
1029.541	25.29023
1029.707	-35.82187
1029.873	-0
1030.038	-44.2495
1030.204	69.55627
1030.369	-14.75104
1030.534	61.12386
1030.7	-14.75104
1030.865	27.39791
1031.031	-33.71489
1031.196	4.2148
1031.361	-0
1031.527	-40.03573
1031.692	10.53718
1031.857	-31.6079
1032.023	2.10739
1032.188	6.32224
1032.353	73.77262
1032.518	-8.42931
1032.684	-2.10736
1032.849	-18.9654
1033.014	4.2148
1033.179	-2.10736
1033.344	44.26014
1033.509	-35.82187
1033.674	-14.75104
1033.839	-52.67674
1034.004	-6.32202
1034.17	2.10739
1034.335	2.10739
1034.5	103.28953
1034.664	31.61332
1034.829	71.66443
1034.994	-35.82187
1035.159	-18.9654
1035.324	25.29023
1035.489	-10.53658
1035.654	67.44814
1035.819	-58.9969
1035.984	-14.75104
1036.148	-31.6079
1036.313	-18.9654
1036.478	48.47593
1036.643	-10.53658
1036.807	77.98905
1036.972	-21.07254
1037.137	6.32224
1037.301	23.18258
1037.466	-44.2495
1037.631	31.61332
1037.795	12.64469
1037.96	18.96735
1038.124	-54.78349
1038.289	48.47593
1038.454	6.32224
1038.618	27.39791
1038.783	23.18258
1038.947	-50.56997
1039.111	63.23193
1039.276	-25.28676
1039.44	-42.14263
1039.605	56.90779
1039.769	42.15228
1039.933	40.04444
1040.098	-18.9654
1040.262	65.34002
1040.426	23.18258
1040.591	27.39791
1040.755	42.15228
1040.919	27.39791
1041.083	46.36803
1041.248	46.36803
1041.412	40.04444
1041.576	59.01582
1041.74	-12.64382
1041.904	16.85977
1042.068	33.72107
1042.232	84.31387
1042.397	46.36803
1042.561	61.12386
1042.725	46.36803
1042.889	-2.10736
1043.053	-16.85823
1043.217	56.90779
1043.381	2.10739
1043.544	-18.9654
1043.708	35.82884
1043.872	71.66443
1044.036	18.96735
1044.2	46.36803
1044.364	10.53718
1044.528	40.04444
1044.691	8.4297
1044.855	61.12386
1045.019	-2.10736
1045.183	82.20557
1045.346	-27.39383
1045.51	-69.53
1045.674	-48.46317
1045.837	52.69182
1046.001	50.58386
1046.165	-10.53658
1046.328	6.32224
1046.492	82.20557
1046.655	2.10739
1046.819	59.01582
1046.983	12.64469
1047.146	31.61332
1047.31	23.18258
1047.473	48.47593
1047.636	-58.9969
1047.8	14.75222
1047.963	52.69182
1048.127	8.4297
1048.29	69.55627
