Data from mixed_try1_USB4F045381__14__00036.txt Node

Date: Thu Apr 03 19:33:07 EDT 2025
User: mmckonesweet
Spectrometer: USB4F04538
Trigger mode: 4
Integration Time (sec): 2.700000E-3
Scans to average: 1
Electric dark correction enabled: true
Nonlinearity correction enabled: true
Boxcar width: 0
XAxis mode: Wavelengths
Number of Pixels in Spectrum: 3648
>>>>>Begin Spectral Data<<<<<
345.52	15.98162
345.736	15.98162
345.952	15.98162
346.168	49.70556
346.384	-13.52183
346.6	37.05838
346.816	-64.08798
347.032	1.22931
347.248	-19.84338
347.464	-21.95051
347.68	22.3044
347.896	-45.12736
348.112	70.78603
348.328	-21.95051
348.544	11.76656
348.76	26.51971
348.975	3.33671
349.191	24.41204
349.407	24.41204
349.623	15.98162
349.839	-0.87807
350.055	-17.73622
350.27	28.62739
350.486	-0.87807
350.702	70.78603
350.918	-55.66129
351.133	30.7351
351.349	24.41204
351.565	13.87408
351.781	-38.8067
351.996	32.84284
352.212	7.55158
352.428	53.92147
352.644	-15.62904
352.859	-9.30734
353.075	20.19678
353.291	5.44413
353.506	-64.08798
353.722	-0.87807
353.938	53.92147
354.153	-13.52183
354.369	-0.87807
354.584	-38.8067
354.8	79.21886
355.016	72.8942
355.231	41.27401
355.447	-36.69976
355.662	-21.95051
355.878	104.51949
356.093	-13.52183
356.309	20.19678
356.524	-55.66129
356.74	20.19678
356.955	-43.0205
357.171	62.35357
357.386	24.41204
357.602	5.44413
357.817	51.8135
358.033	30.7351
358.248	30.7351
358.464	-9.30734
358.679	45.48974
358.895	-21.95051
359.11	62.35357
359.325	-13.52183
359.541	87.65205
359.756	-13.52183
359.972	22.3044
360.187	-26.16471
360.402	32.84284
360.618	-72.51427
360.833	11.76656
361.048	45.48974
361.264	47.59764
361.479	3.33671
361.694	-53.55456
361.909	-2.98542
362.125	20.19678
362.34	-7.20006
362.555	18.08919
362.77	9.65906
362.986	96.08559
363.201	-49.34101
363.416	87.65205
363.631	66.56975
363.847	28.62739
364.062	18.08919
364.277	-0.87807
364.492	-17.73622
364.707	-5.09275
364.922	64.46165
365.138	62.35357
365.353	11.76656
365.568	62.35357
365.783	3.33671
365.998	-7.20006
366.213	22.3044
366.428	37.05838
366.643	5.44413
366.858	-43.0205
367.073	-13.52183
367.288	28.62739
367.503	62.35357
367.718	83.43541
367.933	22.3044
368.148	-15.62904
368.363	-28.27177
368.578	-36.69976
368.793	24.41204
369.008	-36.69976
369.223	3.33671
369.438	-2.98542
369.653	66.56975
369.868	-30.3788
370.083	98.19403
370.298	24.41204
370.513	37.05838
370.728	-19.84338
370.943	87.65205
371.157	5.44413
371.372	15.98162
371.587	89.7604
371.802	-34.5928
372.017	-17.73622
372.232	-21.95051
372.446	-17.73622
372.661	15.98162
372.876	47.59764
373.091	-5.09275
373.306	-34.5928
373.52	20.19678
373.735	-43.0205
373.95	64.46165
374.165	-30.3788
374.379	28.62739
374.594	11.76656
374.809	-2.98542
375.023	11.76656
375.238	-19.84338
375.453	66.56975
375.667	28.62739
375.882	-66.19459
376.097	-30.3788
376.311	15.98162
376.526	11.76656
376.741	-38.8067
376.955	-11.4146
377.17	62.35357
377.384	-24.05762
377.599	47.59764
377.813	89.7604
378.028	-30.3788
378.242	-0.87807
378.457	-19.84338
378.672	-38.8067
378.886	37.05838
379.101	37.05838
379.315	37.05838
379.53	53.92147
379.744	-21.95051
379.958	20.19678
380.173	39.16618
380.387	-0.87807
380.602	66.56975
380.816	11.76656
381.031	24.41204
381.245	18.08919
381.459	-36.69976
381.674	32.84284
381.888	-21.95051
382.103	79.21886
382.317	5.44413
382.531	-28.27177
382.746	-19.84338
382.96	9.65906
383.174	32.84284
383.388	58.13747
383.603	-13.52183
383.817	-0.87807
384.031	-45.12736
384.246	37.05838
384.46	45.48974
384.674	87.65205
384.888	-30.3788
385.103	28.62739
385.317	66.56975
385.531	-9.30734
385.745	-38.8067
385.959	37.05838
386.174	3.33671
386.388	7.55158
386.602	-21.95051
386.816	15.98162
387.03	15.98162
387.244	30.7351
387.458	39.16618
387.672	43.38186
387.887	-26.16471
388.101	18.08919
388.315	49.70556
388.529	-47.2342
388.743	-5.09275
388.957	81.32712
389.171	7.55158
389.385	15.98162
389.599	87.65205
389.813	7.55158
390.027	28.62739
390.241	20.19678
390.455	5.44413
390.669	13.87408
390.883	-28.27177
391.097	62.35357
391.311	-21.95051
391.525	-43.0205
391.738	9.65906
391.952	45.48974
392.166	-9.30734
392.38	28.62739
392.594	37.05838
392.808	62.35357
393.022	13.87408
393.236	15.98162
393.449	64.46165
393.663	7.55158
393.877	-24.05762
394.091	-5.09275
394.305	45.48974
394.518	-24.05762
394.732	66.56975
394.946	3.33671
395.16	-9.30734
395.373	47.59764
395.587	-7.20006
395.801	47.59764
396.015	39.16618
396.228	87.65205
396.442	45.48974
396.656	11.76656
396.869	11.76656
397.083	56.02946
397.297	56.02946
397.51	15.98162
397.724	-43.0205
397.938	1.22931
398.151	47.59764
398.365	15.98162
398.578	-5.09275
398.792	18.08919
399.005	-17.73622
399.219	15.98162
399.433	-0.87807
399.646	39.16618
399.86	11.76656
400.073	-0.87807
400.287	13.87408
400.5	-5.09275
400.714	32.84284
400.927	83.43541
401.141	-89.3656
401.354	81.32712
401.567	45.48974
401.781	-32.48582
401.994	13.87408
402.208	28.62739
402.421	26.51971
402.635	77.11062
402.848	53.92147
403.061	37.05838
403.275	5.44413
403.488	43.38186
403.701	-5.09275
403.915	20.19678
404.128	-40.91361
404.341	-11.4146
404.555	-26.16471
404.768	41.27401
404.981	-0.87807
405.195	53.92147
405.408	11.76656
405.621	13.87408
405.834	-70.40773
406.048	37.05838
406.261	-19.84338
406.474	11.76656
406.687	-30.3788
406.9	-26.16471
407.114	7.55158
407.327	49.70556
407.54	-36.69976
407.753	70.78603
407.966	11.76656
408.179	-5.09275
408.392	-17.73622
408.605	-17.73622
408.819	-34.5928
409.032	37.05838
409.245	28.62739
409.458	89.7604
409.671	3.33671
409.884	28.62739
410.097	7.55158
410.31	-85.15292
410.523	28.62739
410.736	-5.09275
410.949	22.3044
411.162	-9.30734
411.375	-9.30734
411.588	58.13747
411.801	43.38186
412.014	-102.00301
412.227	-30.3788
412.44	75.0024
412.653	-5.09275
412.865	72.8942
413.078	3.33671
413.291	13.87408
413.504	28.62739
413.717	-9.30734
413.93	1.22931
414.143	26.51971
414.356	15.98162
414.568	37.05838
414.781	66.56975
414.994	37.05838
415.207	9.65906
415.42	87.65205
415.632	-26.16471
415.845	26.51971
416.058	-13.52183
416.271	47.59764
416.483	11.76656
416.696	30.7351
416.909	43.38186
417.121	66.56975
417.334	-17.73622
417.547	-0.87807
417.759	5.44413
417.972	83.43541
418.185	9.65906
418.397	64.46165
418.61	58.13747
418.823	11.76656
419.035	-13.52183
419.248	13.87408
419.46	20.19678
419.673	47.59764
419.885	72.8942
420.098	79.21886
420.311	-93.57817
420.523	45.48974
420.736	28.62739
420.948	34.9506
421.161	5.44413
421.373	-9.30734
421.586	39.16618
421.798	-24.05762
422.01	-17.73622
422.223	-38.8067
422.435	45.48974
422.648	87.65205
422.86	30.7351
423.073	11.76656
423.285	-34.5928
423.497	-19.84338
423.71	91.86877
423.922	3.33671
424.134	13.87408
424.347	37.05838
424.559	-0.87807
424.771	26.51971
424.984	89.7604
425.196	20.19678
425.408	-26.16471
425.621	22.3044
425.833	45.48974
426.045	70.78603
426.257	-11.4146
426.47	81.32712
426.682	45.48974
426.894	13.87408
427.106	-17.73622
427.318	-19.84338
427.531	3.33671
427.743	-26.16471
427.955	37.05838
428.167	37.05838
428.379	28.62739
428.591	-47.2342
428.804	-38.8067
429.016	-17.73622
429.228	66.56975
429.44	41.27401
429.652	9.65906
429.864	7.55158
430.076	-15.62904
430.288	28.62739
430.5	81.32712
430.712	5.44413
430.924	7.55158
431.136	7.55158
431.348	-5.09275
431.56	37.05838
431.772	53.92147
431.984	62.35357
432.196	22.3044
432.408	39.16618
432.62	13.87408
432.832	-19.84338
433.044	22.3044
433.256	11.76656
433.468	-59.87469
433.679	11.76656
433.891	47.59764
434.103	47.59764
434.315	37.05838
434.527	62.35357
434.739	75.0024
434.95	47.59764
435.162	11.76656
435.374	49.70556
435.586	-34.5928
435.798	79.21886
436.009	-30.3788
436.221	81.32712
436.433	106.62802
436.645	20.19678
436.856	49.70556
437.068	56.02946
437.28	28.62739
437.491	28.62739
437.703	28.62739
437.915	1.22931
438.126	49.70556
438.338	-5.09275
438.55	-15.62904
438.761	53.92147
438.973	-0.87807
439.184	70.78603
439.396	3.33671
439.608	7.55158
439.819	-34.5928
440.031	11.76656
440.242	15.98162
440.454	32.84284
440.665	-30.3788
440.877	13.87408
441.088	45.48974
441.3	62.35357
441.511	1.22931
441.723	28.62739
441.934	-13.52183
442.146	7.55158
442.357	32.84284
442.569	7.55158
442.78	18.08919
442.991	18.08919
443.203	112.95374
443.414	22.3044
443.626	-13.52183
443.837	-0.87807
444.048	-21.95051
444.26	20.19678
444.471	28.62739
444.682	64.46165
444.894	32.84284
445.105	-68.30117
445.316	11.76656
445.528	3.33671
445.739	7.55158
445.95	-47.2342
446.161	66.56975
446.373	7.55158
446.584	51.8135
446.795	-2.98542
447.006	11.76656
447.217	-51.44779
447.429	-11.4146
447.64	24.41204
447.851	104.51949
448.062	20.19678
448.273	20.19678
448.484	7.55158
448.695	53.92147
448.907	60.24551
449.118	20.19678
449.329	53.92147
449.54	24.41204
449.751	62.35357
449.962	28.62739
450.173	22.3044
450.384	-30.3788
450.595	-19.84338
450.806	72.8942
451.017	-21.95051
451.228	22.3044
451.439	-7.20006
451.65	-19.84338
451.861	-45.12736
452.072	-15.62904
452.283	7.55158
452.494	96.08559
452.705	3.33671
452.915	13.87408
453.126	37.05838
453.337	-21.95051
453.548	62.35357
453.759	56.02946
453.97	5.44413
454.181	62.35357
454.391	83.43541
454.602	37.05838
454.813	13.87408
455.024	83.43541
455.235	100.3025
455.445	75.0024
455.656	-13.52183
455.867	45.48974
456.078	-7.20006
456.288	-30.3788
456.499	39.16618
456.71	58.13747
456.921	83.43541
457.131	47.59764
457.342	41.27401
457.553	64.46165
457.763	-19.84338
457.974	28.62739
458.184	45.48974
458.395	96.08559
458.606	28.62739
458.816	-13.52183
459.027	32.84284
459.237	-72.51427
459.448	30.7351
459.659	32.84284
459.869	70.78603
460.08	28.62739
460.29	22.3044
460.501	-97.79065
460.711	5.44413
460.922	20.19678
461.132	28.62739
461.343	37.05838
461.553	64.46165
461.764	32.84284
461.974	13.87408
462.184	56.02946
462.395	22.3044
462.605	5.44413
462.816	45.48974
463.026	22.3044
463.236	28.62739
463.447	28.62739
463.657	56.02946
463.867	87.65205
464.078	75.0024
464.288	30.7351
464.498	-21.95051
464.709	98.19403
464.919	-21.95051
465.129	-2.98542
465.339	-0.87807
465.55	47.59764
465.76	39.16618
465.97	15.98162
466.18	9.65906
466.391	87.65205
466.601	11.76656
466.811	-61.98135
467.021	20.19678
467.231	-30.3788
467.441	22.3044
467.651	56.02946
467.862	47.59764
468.072	7.55158
468.282	39.16618
468.492	142.47636
468.702	45.48974
468.912	77.11062
469.122	58.13747
469.332	11.76656
469.542	30.7351
469.752	83.43541
469.962	-36.69976
470.172	32.84284
470.382	37.05838
470.592	18.08919
470.802	5.44413
471.012	-24.05762
471.222	62.35357
471.432	62.35357
471.642	-5.09275
471.852	64.46165
472.062	-5.09275
472.272	-15.62904
472.482	87.65205
472.691	53.92147
472.901	-2.98542
473.111	-15.62904
473.321	62.35357
473.531	26.51971
473.741	3.33671
473.95	-21.95051
474.16	53.92147
474.37	81.32712
474.58	28.62739
474.79	37.05838
474.999	32.84284
475.209	72.8942
475.419	20.19678
475.628	37.05838
475.838	15.98162
476.048	7.55158
476.258	13.87408
476.467	-13.52183
476.677	13.87408
476.886	-0.87807
477.096	47.59764
477.306	3.33671
477.515	79.21886
477.725	62.35357
477.935	75.0024
478.144	60.24551
478.354	18.08919
478.563	87.65205
478.773	49.70556
478.982	45.48974
479.192	60.24551
479.401	20.19678
479.611	81.32712
479.82	24.41204
480.03	106.62802
480.239	64.46165
480.449	117.171
480.658	58.13747
480.868	49.70556
481.077	53.92147
481.287	87.65205
481.496	79.21886
481.705	98.19403
481.915	15.98162
482.124	20.19678
482.333	106.62802
482.543	56.02946
482.752	70.78603
482.961	106.62802
483.171	138.25859
483.38	142.47636
483.589	72.8942
483.799	89.7604
484.008	75.0024
484.217	89.7604
484.426	64.46165
484.636	53.92147
484.845	64.46165
485.054	81.32712
485.263	115.06236
485.472	81.32712
485.682	53.92147
485.891	98.19403
486.1	115.06236
486.309	79.21886
486.518	13.87408
486.727	96.08559
486.936	28.62739
487.146	49.70556
487.355	129.82329
487.564	123.49705
487.773	85.54372
487.982	96.08559
488.191	100.3025
488.4	98.19403
488.609	87.65205
488.818	83.43541
489.027	98.19403
489.236	117.171
489.445	91.86877
489.654	91.86877
489.863	178.33085
490.072	146.69422
490.281	125.60578
490.49	77.11062
490.698	75.0024
490.907	68.67788
491.116	146.69422
491.325	100.3025
491.534	134.0409
491.743	136.14973
491.952	140.36746
492.16	112.95374
492.369	112.95374
492.578	62.35357
492.787	150.91217
492.996	89.7604
493.204	184.65873
493.413	180.44012
493.622	220.52019
493.831	131.93208
494.039	125.60578
494.248	148.80318
494.457	66.56975
494.665	121.38835
494.874	112.95374
495.083	148.80318
495.291	180.44012
495.5	163.5665
495.709	150.91217
495.917	157.23924
496.126	146.69422
496.335	102.41098
496.543	235.28834
496.752	199.42451
496.96	125.60578
497.169	252.16739
497.377	247.94751
497.586	125.60578
497.794	241.61784
498.003	180.44012
498.211	201.53399
498.42	83.43541
498.628	180.44012
498.837	205.753
499.045	203.64348
499.254	256.38735
499.462	188.87742
499.671	258.49735
499.879	197.31505
500.087	216.30089
500.296	186.76807
500.504	201.53399
500.713	323.91679
500.921	212.08167
501.129	207.86254
501.338	180.44012
501.546	247.94751
501.754	298.59104
501.962	368.24296
502.171	275.37808
502.379	226.84928
502.587	247.94751
502.795	233.17854
503.004	205.753
503.212	372.4649
503.42	146.69422
503.628	277.48826
503.837	250.05744
504.045	294.37034
504.253	235.28834
504.461	347.1343
504.669	239.50798
504.877	334.46994
505.085	209.9721
505.294	353.46672
505.502	307.03267
505.71	275.37808
505.918	300.70142
506.126	273.26793
506.334	275.37808
506.542	326.02738
506.75	281.70867
506.958	380.90897
507.166	349.24509
507.374	317.58511
507.582	250.05744
507.79	302.81182
507.998	328.13799
508.206	347.1343
508.414	421.02194
508.622	372.4649
508.83	338.69132
509.037	410.46532
509.245	340.80204
509.453	404.13155
509.661	414.68792
509.869	461.14068
510.077	302.81182
510.285	459.02903
510.492	334.46994
510.7	429.46752
510.908	442.13636
511.116	366.13202
511.324	454.80577
511.531	551.95569
511.739	444.24789
511.947	471.69917
512.155	368.24296
512.362	473.81092
512.57	399.90911
512.778	408.35405
512.985	478.03445
513.193	530.83356
513.401	444.24789
513.608	440.02485
513.816	492.81728
514.024	463.25235
514.231	410.46532
514.439	570.96678
514.646	486.48169
514.854	528.72142
515.061	406.24279
515.269	520.27302
515.477	579.4165
515.684	478.03445
515.892	545.61891
516.099	551.95569
516.307	513.93686
516.514	592.09148
516.722	621.66823
516.929	602.65432
517.136	471.69917
517.344	695.62058
517.551	589.97895
517.759	611.10482
517.966	623.78095
518.173	564.62963
518.381	520.27302
518.588	661.812
518.796	642.79598
519.003	649.13455
519.21	606.87955
519.418	729.43204
519.625	689.28125
519.832	704.07318
520.039	748.45219
520.247	767.47318
520.454	737.88533
520.661	864.70372
520.868	699.84686
521.076	756.90586
521.283	756.90586
521.49	754.79243
521.697	780.15429
521.904	822.42718
522.112	714.63918
522.319	926.01066
522.526	678.71592
522.733	818.19972
522.94	778.04075
523.147	835.10977
523.354	822.42718
523.561	879.50133
523.768	746.3388
523.975	856.24813
524.183	839.33737
524.39	847.79268
524.597	835.10977
524.804	932.35313
525.011	936.58148
525.218	955.60942
525.425	885.84328
525.632	835.10977
525.838	794.94937
526.045	953.49517
526.252	976.75224
526.459	1063.44449
526.666	953.49517
526.873	890.07129
527.08	1023.26877
527.287	1154.37539
527.494	970.40932
527.701	991.55261
527.907	966.18074
528.114	1236.8542
528.321	1084.59041
528.528	1120.53962
528.735	1059.21537
528.941	1162.8345
529.148	1033.84112
529.355	1190.32703
529.562	1160.71971
529.768	1255.88846
529.975	915.44002
530.182	1181.86772
530.388	1008.46772
530.595	1321.45245
530.802	1114.19554
531.008	1194.55671
531.215	1192.44187
531.422	1332.02746
531.628	1260.11833
531.835	1277.0379
532.042	1384.90307
532.248	1467.38996
532.455	1264.34821
532.661	1334.14247
532.868	1160.71971
533.074	1380.67299
533.281	1431.43407
533.487	1488.54046
533.694	1458.92975
533.9	1549.87656
534.107	1634.47622
534.313	1681.00457
534.52	1461.0448
534.726	1592.17674
534.933	1389.13314
535.139	1613.32658
535.345	1590.06175
535.552	1619.67149
535.758	1547.76153
535.965	1577.37175
536.171	1587.94675
536.377	1712.72767
536.584	1507.57587
536.79	1668.31515
536.996	1727.53154
537.203	1626.01639
537.409	1636.59117
537.615	1659.85547
537.821	1769.82736
538.028	1805.77759
538.234	1585.83175
538.44	1651.39576
538.646	1685.23436
538.853	1780.40108
539.059	1617.55653
539.265	1685.23436
539.471	1845.95577
539.677	1900.93361
539.883	1763.48308
540.09	1993.96451
540.296	1896.70467
540.502	1890.36121
540.708	1795.20411
540.914	2008.76378
541.12	1727.53154
541.326	1974.9364
541.532	1947.45048
541.738	1972.82214
541.944	1932.64996
542.15	2061.61567
542.356	1998.1929
542.562	2133.48703
542.768	1915.73473
542.974	2112.3493
543.18	2127.14579
543.386	2313.12392
543.592	2226.48343
543.798	2201.12238
544.004	1972.82214
544.21	2351.15619
544.415	2218.02989
544.621	2135.60076
544.827	1979.16492
545.033	2391.29786
545.239	2213.80306
545.445	2308.89791
545.651	2110.23548
545.856	2429.32337
546.062	2150.39665
546.268	2336.36624
546.474	2215.91648
546.679	2359.60737
546.885	2306.7849
547.091	2403.97341
547.297	2245.50338
547.502	2420.87355
547.708	2211.68964
547.914	2537.04321
548.119	2302.55884
548.325	2403.97341
548.531	2317.34988
548.736	2444.11015
548.942	2450.44717
549.147	2446.2225
549.353	2435.66063
549.559	2646.8441
549.764	2412.42356
549.97	2513.81199
550.175	2600.39386
550.381	2623.61973
550.586	2581.38979
550.792	2775.60567
550.997	2412.42356
551.203	2657.40013
551.408	2684.84433
551.614	2724.95118
551.819	2629.9538
552.025	2792.48877
552.23	2566.60818
552.435	2773.49522
552.641	2845.2428
552.846	2718.61883
553.052	2767.16379
553.257	2927.52145
553.462	2737.61552
553.668	3007.66895
553.873	2758.72169
554.078	3068.8194
554.283	3077.25292
554.489	2931.74028
554.694	2773.49522
554.899	2902.20728
555.105	2792.48877
555.31	2876.89102
555.515	2969.70704
555.72	3247.97647
555.925	3054.06013
556.131	2969.70704
556.336	3051.95161
556.541	3062.49409
556.746	2965.48875
556.951	3073.03619
557.156	2919.08363
557.361	3292.22044
557.567	3073.03619
557.772	3231.11967
557.977	3079.36126
558.182	3372.26179
558.387	3201.61771
558.592	3123.63277
558.797	3066.71098
559.002	3319.60581
559.207	3098.33562
559.412	3412.27303
559.617	3365.94365
559.822	3437.53999
560.027	3252.1905
560.232	3429.11795
560.437	3256.40447
560.642	3635.37397
560.847	3334.35058
561.051	3509.11567
561.256	3416.48436
561.461	3517.53496
561.666	3304.86021
561.871	3532.26801
562.076	3235.33397
562.281	3669.03146
562.485	3342.77578
562.69	3448.06713
562.895	3433.329
563.1	3496.48619
563.305	3374.3678
563.509	3685.85838
563.714	3702.68407
563.919	3713.1995
564.123	3576.46176
564.328	3704.78719
564.533	3620.6473
564.737	3696.37458
564.942	3828.83723
565.147	3917.1022
565.351	3612.23164
565.556	3809.91875
565.761	3694.27138
565.965	3919.20331
566.17	3711.09645
566.374	3757.35905
566.579	3702.68407
566.784	3727.9203
566.988	3877.17717
567.193	3946.51599
567.397	3452.27786
567.602	3988.52879
567.806	3889.78586
568.011	4005.33163
568.215	3891.88723
568.42	4068.33055
568.624	3854.05938
568.828	3992.72962
569.033	3704.78719
569.237	4150.20122
569.442	3921.30441
569.646	4156.49765
569.85	4074.62942
570.055	4500.4091
570.259	4116.6171
570.463	4315.9434
570.668	4005.33163
570.872	4150.20122
571.076	4299.16545
571.281	4265.60543
571.485	4032.63344
571.689	4164.89259
571.893	4173.28719
572.098	4156.49765
572.302	4137.6078
572.506	4301.26277
572.71	4080.9281
572.914	4290.77596
573.119	4328.52596
573.323	4152.30005
573.527	4223.64769
573.731	4324.33186
573.935	4311.74904
574.139	4559.06708
574.343	4299.16545
574.547	4552.78312
574.751	4383.04137
574.955	4644.92765
575.159	4269.80073
575.364	4399.81239
575.568	4441.73383
575.772	4582.10652
575.976	4359.97895
576.18	4546.49897
576.383	4468.97806
576.587	4670.05046
576.791	4422.87026
576.995	4594.67235
577.199	4276.09352
577.403	4611.42555
577.607	4623.98951
577.811	4776.78621
578.015	4512.98013
578.219	4806.07591
578.422	4628.17731
578.626	4898.10021
578.83	4577.91773
579.034	5000.5296
579.238	4647.02134
579.442	4887.64513
579.645	4678.42401
579.849	4747.49205
580.053	4682.61065
580.257	4891.82723
580.46	4927.37138
580.664	4946.18619
580.868	4728.65775
581.071	5163.46609
581.275	4952.45737
581.479	4910.64555
581.682	4829.08613
581.886	5044.41098
582.09	4873.00706
582.293	5178.08169
582.497	4768.4169
582.7	4998.43976
582.904	4956.63805
583.107	5125.87789
583.311	4711.91461
583.515	5000.5296
583.718	4711.91461
583.922	5065.30329
584.125	4864.64194
584.329	5226.09634
584.532	5136.31981
584.735	5320.00229
584.939	5088.28216
585.142	5395.09291
585.346	5102.90362
585.549	5357.5514
585.753	5094.54864
585.956	5340.86385
586.159	5299.1384
586.363	5549.35023
586.566	5349.20781
586.769	5395.09291
586.973	5332.51951
587.176	5405.51976
587.379	5272.01183
587.582	5649.34007
587.786	5428.45676
587.989	5636.84431
588.192	5465.98389
588.395	5653.50513
588.599	5511.84004
588.802	5720.13332
589.005	5336.69172
589.208	5605.6012
589.411	5403.43444
589.615	5638.927
589.818	5580.60289
590.021	5765.92619
590.224	5653.50513
590.427	5836.67451
590.63	5772.16978
590.833	5607.68424
591.036	5636.84431
591.239	5955.22079
591.442	5842.9157
591.645	5928.19066
591.848	5790.8993
592.051	6044.59975
592.254	5711.80612
592.457	5784.65634
592.66	5894.91735
592.863	5992.64054
593.066	5963.53695
593.269	6268.89466
593.472	5838.75493
593.675	6150.55092
593.878	6021.73951
594.081	6310.40074
594.284	6111.08606
594.486	6171.3185
594.689	6075.76821
594.892	6030.05265
595.095	6048.75585
595.298	6243.98652
595.5	5936.50805
595.703	6443.15744
595.906	6262.66794
596.109	6123.54957
596.311	6088.23411
596.514	6252.28961
596.717	6169.24184
596.92	6426.56807
597.122	6241.91069
597.325	6335.2999
597.528	6366.41912
597.73	6484.62435
597.933	6194.16011
598.136	6322.85074
598.338	6258.51668
598.541	6432.78926
598.743	6436.9366
598.946	6474.25849
599.148	6459.74532
599.351	6451.45156
599.554	6295.87468
599.756	6555.09679
599.959	6360.1957
600.161	6642.11408
600.363	6372.64233
600.566	6509.50003
600.768	6695.96156
600.971	6735.30182
601.173	6428.64182
601.376	6611.04115
601.578	6403.75526
601.78	6494.98962
601.983	6718.73851
602.185	6486.69745
602.388	6505.35432
602.59	6675.25283
602.792	6579.96303
602.995	6745.65315
603.197	6685.60748
603.399	6840.85853
603.601	6640.04272
603.804	6929.81132
604.006	6714.59745
604.208	6867.75566
604.41	6865.68679
604.613	6784.98296
604.815	6876.03093
605.017	6890.51177
605.219	7026.99096
605.421	7047.66107
605.623	6919.47013
605.826	7072.46224
606.028	6741.51268
606.23	7055.92848
606.432	6698.03231
606.634	7012.52055
606.836	6803.61
607.038	7066.26225
607.24	6929.81132
607.442	7217.07169
607.644	6964.96715
607.846	7200.55041
608.048	7014.58782
608.25	7064.19554
608.452	7107.59171
608.654	7130.31911
608.856	7078.66203
609.058	7256.30408
609.26	7099.32653
609.462	7177.83133
609.664	7173.7003
609.866	7163.37233
610.067	6904.9915
610.269	7314.10572
610.471	7039.3933
610.673	7320.29774
610.875	7111.72417
611.077	7303.78526
611.278	7055.92848
611.48	7171.63475
611.682	7177.83133
611.884	7276.9495
612.085	6973.23817
612.287	7212.9415
612.489	7115.85653
612.69	7439.97134
612.892	7150.97804
613.094	7359.50924
613.295	7146.84643
613.497	7336.80881
613.699	7270.7561
613.9	7444.09671
614.102	7221.20179
614.304	7505.9669
614.505	7132.3851
614.707	7427.59471
614.908	7351.25484
615.11	7446.15936
615.311	7351.25484
615.513	7421.4061
615.714	7530.70954
615.916	7349.19119
616.117	7320.29774
616.319	7477.09656
616.52	7161.30667
616.722	7534.83301
616.923	7400.77599
617.124	7413.15431
617.326	7142.71473
617.527	7592.55263
617.729	7633.77067
617.93	7765.6115
618.131	7398.71286
618.333	7481.22115
618.534	7512.15285
618.735	7742.9575
618.937	7231.52666
619.138	7619.34533
619.339	7600.79692
619.54	7868.55239
619.742	7510.09088
619.943	7658.49742
620.144	7355.38208
620.345	7619.34533
620.546	7718.24114
620.748	7493.59441
620.949	7660.55785
621.15	7819.14726
621.351	7749.13611
621.552	7788.26297
621.753	7697.64187
621.954	7745.01706
622.155	7617.28448
622.356	7823.26481
622.558	7516.27671
622.759	7724.42052
622.96	7940.5802
623.161	7957.04016
623.362	7569.87906
623.563	7734.71905
623.764	7419.34318
623.965	7862.3774
624.166	7757.37397
624.366	7782.08554
624.567	7738.83832
624.768	7922.06117
624.969	7710.00169
625.17	7940.5802
625.371	7728.53999
625.572	8039.32036
625.773	7670.85965
625.973	8061.94172
626.174	7757.37397
626.375	7864.43575
626.576	7712.06158
626.777	8078.39208
626.977	7635.83135
627.178	7989.95615
627.379	7948.81034
627.58	8154.45824
627.78	7710.00169
627.981	8222.27797
628.182	7782.08554
628.382	7786.20385
628.583	8012.58287
628.784	7922.06117
628.984	7662.61825
629.185	8152.40276
629.386	7662.61825
629.586	8267.47914
629.787	7973.49881
629.987	8045.49006
630.188	7882.95997
630.388	8012.58287
630.589	7819.14726
630.79	8098.95321
630.99	7905.59842
631.191	8045.49006
631.391	7889.13434
631.591	8047.54659
631.792	8037.26375
631.992	8316.77865
632.193	8160.62457
632.393	8248.9889
632.594	8160.62457
632.794	8203.78383
632.994	8061.94172
633.195	8337.31678
633.395	8082.50446
633.595	8318.83255
633.796	8218.1683
633.996	8166.79071
634.196	8068.11075
634.397	8398.91953
634.597	8092.78508
634.797	8337.31678
634.997	8394.81323
635.198	8382.49384
635.398	8259.26145
635.598	8435.87284
635.798	8427.66153
635.998	8546.69554
636.199	8396.86639
636.399	8639.00568
636.599	8411.23799
636.799	8431.76722
636.999	8160.62457
637.199	8302.40079
637.399	8407.13192
637.599	8643.10748
637.799	8283.91356
637.999	8692.32321
638.199	8567.21219
638.399	8532.33276
638.599	8696.42404
638.799	8696.42404
638.999	8421.50285
639.199	8805.06927
639.399	8425.60865
639.599	8604.13743
639.799	8166.79071
639.999	8587.72696
640.199	8382.49384
640.399	8692.32321
640.599	8279.80507
640.799	8823.51338
640.998	8532.33276
641.198	8772.27612
641.398	8684.12133
641.598	8821.46411
641.798	8846.05419
641.997	8677.96972
642.197	8487.18655
642.397	8946.43687
642.597	8632.85285
642.796	8540.54018
642.996	8665.66601
643.196	8749.72812
643.395	8628.75087
643.595	8841.95602
643.795	8692.32321
643.994	8907.51806
644.194	8696.42404
644.394	9022.20782
644.593	8876.78814
644.793	9224.8295
644.992	8751.77803
645.192	8903.42097
645.392	8848.10324
645.591	8925.95409
645.791	8903.42097
645.99	9079.53208
646.19	8852.2013
646.389	9104.09545
646.589	9005.82695
646.788	9136.84276
646.987	8932.09911
647.187	9241.19568
647.386	9153.21477
647.586	8936.1957
647.785	8809.16809
647.984	9253.4696
648.184	9251.42399
648.383	9318.92036
648.582	8805.06927
648.782	9249.37836
648.981	9190.0478
649.18	9104.09545
649.38	9032.4453
649.579	9112.28269
649.778	9300.51406
649.977	9521.30219
650.177	9046.77703
650.376	8987.39713
650.575	8981.25354
650.774	9065.20229
650.973	9100.00173
651.173	9241.19568
651.372	9114.32946
651.571	9286.19711
651.77	9275.97022
651.969	9132.74959
652.168	9349.59455
652.367	9553.99555
652.566	9181.86316
652.765	9447.72718
652.964	9406.84315
653.163	9684.72877
653.362	9341.41513
653.561	9298.46883
653.76	9173.67825
653.959	9390.48772
654.158	9359.81846
654.357	9228.92115
654.556	9251.42399
654.755	9517.21523
654.954	9394.57668
655.153	9468.16677
655.352	9261.65188
655.551	9533.56268
655.749	9545.82259
655.948	9652.05145
656.147	9692.89749
656.346	9780.69572
656.545	9656.13633
656.743	9498.82314
656.942	9363.90791
657.141	9711.2762
657.34	9423.19754
657.538	9523.34564
657.737	9333.23545
657.936	9666.34826
658.135	9537.64938
658.333	9639.79643
658.532	9363.90791
658.731	9703.10803
658.929	9400.70999
659.128	9788.86157
659.326	9462.03507
659.525	9480.42975
659.724	9370.04196
659.922	9750.07162
660.121	9549.9091
660.319	9823.56375
660.518	9462.03507
660.716	9909.28011
660.915	9635.7113
661.113	9974.57041
661.312	9643.8815
661.51	9956.20902
661.709	9586.68486
661.907	9670.43293
662.105	9588.72781
662.304	9725.56989
662.502	9647.9665
662.701	9803.15123
662.899	9688.81316
663.097	9872.54772
663.296	9684.72877
663.494	9654.0939
663.692	9500.86677
663.891	9811.31642
664.089	9472.2545
664.287	9768.44649
664.485	9823.56375
664.684	10023.5284
664.882	9635.7113
665.08	10062.28097
665.278	9750.07162
665.476	9805.19255
665.675	9880.71089
665.873	9903.15837
666.071	10162.19831
666.269	9758.23838
666.467	9888.87382
666.665	10023.5284
666.863	9670.43293
667.061	10011.28968
667.259	9772.52963
667.457	10064.32044
667.655	9911.32066
667.853	10035.76661
668.051	9801.1099
668.249	10158.1207
668.447	9737.82103
668.645	10060.24149
668.843	9915.40171
669.041	9815.39892
669.239	9394.57668
669.437	9876.62934
669.635	9654.0939
669.833	10052.08343
670.031	9682.68656
670.229	9774.57117
670.426	9907.23954
670.624	9692.89749
670.822	9909.28011
671.02	10109.18514
671.218	9752.11334
671.415	9786.82013
671.613	9533.56268
671.811	9941.92712
672.009	9813.35768
672.206	10007.20999
672.404	9839.8927
672.602	9941.92712
672.799	9699.02386
672.997	10035.76661
673.195	9948.04802
673.392	10003.13025
673.59	10223.35573
673.788	9978.65056
673.985	9962.32961
674.183	9982.73065
674.38	9821.52257
674.578	9843.97478
674.775	9841.93375
674.973	10121.41978
675.17	9839.8927
675.368	9888.87382
675.565	9801.1099
675.763	10156.08188
675.96	9964.36978
676.158	10013.3295
676.355	9903.15837
676.553	10298.76632
676.75	10045.96473
676.947	10019.44889
677.145	9915.40171
677.342	10062.28097
677.539	9811.31642
677.737	10174.43078
677.934	10109.18514
678.131	10211.12523
678.329	9784.77868
678.526	10125.49788
678.723	9876.62934
678.92	10174.43078
679.118	9425.24177
679.315	9876.62934
679.512	9790.903
679.709	9952.12855
679.906	9758.23838
680.104	10098.98921
680.301	10013.3295
680.498	9933.76572
680.695	9848.05681
680.892	10202.97129
681.089	9978.65056
681.286	10209.08677
681.483	9809.27514
681.68	9982.73065
681.877	9827.64608
682.075	10282.46289
682.272	9696.98175
682.469	9927.64451
682.665	9954.16879
682.862	9764.36329
683.059	9927.64451
683.256	10064.32044
683.453	9609.15643
683.65	10133.65392
683.847	9819.48137
684.044	9921.52318
684.241	9684.72877
684.438	10031.68727
684.635	9664.30591
684.831	9999.05044
685.028	9960.28943
685.225	9852.13878
685.422	9799.06855
685.619	9846.0158
685.815	9758.23838
686.012	9925.60408
686.209	9874.58854
686.405	9768.44649
686.602	9592.81366
686.799	9703.10803
686.996	9750.07162
687.192	9866.4252
687.389	9641.83897
687.586	9941.92712
687.782	9807.23385
687.979	10011.28968
688.175	9766.4049
688.372	9790.903
688.568	9754.15503
688.765	9615.28471
688.962	9801.1099
689.158	9982.73065
689.355	9621.41285
689.551	9794.9858
689.748	9635.7113
689.944	9774.57117
690.14	9692.89749
690.337	9778.65422
690.533	9650.00898
690.73	9786.82013
690.926	9980.69061
691.123	9794.9858
691.319	9848.05681
691.515	10092.87149
691.712	9670.43293
691.908	9770.48807
692.104	9754.15503
692.301	9897.03651
692.497	9743.9464
692.693	9850.0978
692.889	10043.92513
693.086	9921.52318
693.282	9719.44411
693.478	10023.5284
693.674	9349.59455
693.87	10072.47817
694.067	10035.76661
694.263	10041.88553
694.459	9935.80609
694.655	9656.13633
694.851	9664.30591
695.047	9484.51729
695.243	9745.98815
695.439	9690.85533
695.635	9533.56268
695.831	9725.56989
696.027	9803.15123
696.224	9941.92712
696.42	9521.30219
696.615	9843.97478
696.811	9733.73738
697.007	9752.11334
697.203	9425.24177
697.399	9562.16826
697.595	9623.45553
697.791	9596.89945
697.987	9586.68486
698.183	10072.47817
698.379	9890.91451
698.575	9917.44221
698.77	9833.76946
698.966	9790.903
699.162	9850.0978
699.358	10094.91074
699.554	9308.6948
699.749	9701.06596
699.945	9678.60207
700.141	9815.39892
700.337	9821.52257
700.532	9892.95519
700.728	9784.77868
700.924	9848.05681
701.119	9494.73583
701.315	9615.28471
701.511	9531.5193
701.706	9662.26354
701.902	9408.88751
702.097	10123.45884
702.293	9774.57117
702.489	9739.86283
702.684	9739.86283
702.88	9880.71089
703.075	9433.41851
703.271	9607.11364
703.466	9948.04802
703.662	9848.05681
703.857	9570.34071
704.053	9633.66871
704.248	9631.62611
704.443	9897.03651
704.639	9488.60475
704.834	9823.56375
705.03	9919.4827
705.225	9903.15837
705.42	9766.4049
705.616	9823.56375
705.811	9484.51729
706.006	9621.41285
706.202	9598.94232
706.397	9654.0939
706.592	9480.42975
706.787	9729.65366
706.983	9490.64846
707.178	9607.11364
707.373	9766.4049
707.568	9574.42684
707.763	9447.72718
707.959	9664.30591
708.154	9603.02801
708.349	9496.7795
708.544	9351.63937
708.739	9545.82259
708.934	9343.46001
709.129	9594.85656
709.324	9224.8295
709.519	9506.99756
709.714	9296.42358
709.909	9529.47591
710.104	9365.95261
710.299	9521.30219
710.494	9670.43293
710.689	9551.95234
710.884	9468.16677
711.079	9529.47591
711.274	9406.84315
711.469	9856.22069
711.664	9531.5193
711.859	9770.48807
712.054	9323.01047
712.249	9805.19255
712.443	9349.59455
712.638	9678.60207
712.833	9351.63937
713.028	9429.33017
713.223	9288.24244
713.417	9580.55592
713.612	9643.8815
713.807	9603.02801
714.002	9664.30591
714.196	9654.0939
714.391	9521.30219
714.586	9788.86157
714.78	9545.82259
714.975	9711.2762
715.17	9635.7113
715.364	9880.71089
715.559	9694.93963
715.754	9490.64846
715.948	9474.29834
716.143	9703.10803
716.337	9284.15177
716.532	9588.72781
716.726	9560.12511
716.921	9457.94718
717.115	9558.08194
717.31	9666.34826
717.504	9515.17173
717.699	9858.26162
717.893	9472.2545
718.088	9672.47524
718.282	9304.60446
718.476	9521.30219
718.671	9390.48772
718.865	9474.29834
719.059	9329.1455
719.254	9318.92036
719.448	9171.63198
719.642	9398.66557
719.837	9214.6001
720.031	9390.48772
720.225	9100.00173
720.419	9245.28705
720.614	9067.24946
720.808	9349.59455
721.002	8962.82182
721.196	9206.41627
721.39	9235.05849
721.585	9333.23545
721.779	9110.23591
721.973	9627.54085
722.167	9108.18911
722.361	9566.25452
722.555	9253.4696
722.749	9625.4982
722.943	9253.4696
723.137	8987.39713
723.331	9057.01346
723.525	9333.23545
723.719	9087.72015
723.913	9194.14002
724.107	9134.79619
724.301	9275.97022
724.495	9151.16833
724.689	9169.58569
724.883	8917.76048
725.077	9275.97022
725.271	9292.33305
725.465	9138.88933
725.659	9167.53938
725.853	9359.81846
726.046	9145.02891
726.24	9069.2966
726.434	9171.63198
726.628	9235.05849
726.822	9239.14996
727.015	9596.89945
727.209	9237.10423
727.403	9202.32426
727.596	9263.69741
727.79	9570.34071
727.984	9545.82259
728.177	9723.52798
728.371	9325.0555
728.565	9586.68486
728.758	9226.87533
728.952	9292.33305
729.146	9423.19754
729.339	9316.87528
729.533	9396.62113
729.726	9363.90791
729.92	9188.00167
730.113	9398.66557
730.307	9333.23545
730.5	9325.0555
730.694	9335.28039
730.887	9320.96542
731.081	9233.01272
731.274	9271.87935
731.468	8968.96589
731.661	9194.14002
731.854	9087.72015
732.048	9214.6001
732.241	8991.49277
732.435	9243.24137
732.628	9177.77074
732.821	9059.0607
733.014	8829.66109
733.208	9149.12187
733.401	9081.57912
733.594	9005.82695
733.788	8956.6776
733.981	9218.69191
734.174	9067.24946
734.367	9018.11271
734.56	9081.57912
734.754	8880.8857
734.947	8860.3972
735.14	9226.87533
735.333	9220.73779
735.526	8997.6361
735.719	8983.30143
735.912	9063.15511
736.105	9400.70999
736.298	9327.10051
736.491	9259.60633
736.684	9308.6948
736.877	9284.15177
737.07	9308.6948
737.263	9367.99729
737.456	9390.48772
737.649	9292.33305
737.842	9161.40037
738.035	9120.46966
738.228	9145.02891
738.421	9390.48772
738.614	9079.53208
738.807	9284.15177
739	9241.19568
739.192	9054.96621
739.385	9091.81408
739.578	9323.01047
739.771	9594.85656
739.964	9257.56077
740.156	9423.19754
740.349	9081.57912
740.542	9296.42358
740.735	8956.6776
740.927	9212.55417
741.12	8981.25354
741.313	8727.17791
741.505	9136.84276
741.698	8817.36551
741.891	9018.11271
742.083	9042.68234
742.276	8989.44496
742.468	9128.65635
742.661	8979.20565
742.854	8835.80864
743.046	8786.6237
743.239	8848.10324
743.431	9071.34373
743.624	9046.77703
743.816	8874.73934
744.009	8876.78814
744.201	8860.3972
744.393	8942.34046
744.586	8891.12927
744.778	8971.01388
744.971	8891.12927
745.163	9087.72015
745.355	8727.17791
745.548	8835.80864
745.74	8897.2752
745.932	8762.02731
746.125	8837.85778
746.317	9057.01346
746.509	8913.66356
746.702	8997.6361
746.894	8673.86856
747.086	8723.07763
747.278	8973.06185
747.471	8827.61187
747.663	8973.06185
747.855	8817.36551
748.047	9075.43794
748.239	8870.64167
748.431	9120.46966
748.623	9145.02891
748.815	8739.4783
749.008	9069.2966
749.2	8977.15773
749.392	8968.96589
749.584	8743.57829
749.776	9042.68234
749.968	8874.73934
750.16	8661.56463
750.352	8899.32381
750.544	8794.82191
750.736	8817.36551
750.928	8764.07711
751.12	8778.42519
751.311	8708.72609
751.503	8825.56263
751.695	8743.57829
751.887	8841.95602
752.079	8975.1098
752.271	8694.37363
752.463	8698.47443
752.654	8833.75947
752.846	8716.92708
753.038	8320.88643
753.23	8577.46981
753.421	8663.61533
753.613	8606.18865
753.805	8702.57515
753.997	8636.95476
754.188	8571.3153
754.38	8721.02747
754.572	8522.07307
754.763	8718.97728
754.955	8458.45234
755.146	8731.27811
755.338	8556.9541
755.53	8917.76048
755.721	8694.37363
755.913	8747.6782
756.104	8618.4956
756.296	8827.61187
756.487	8579.52128
756.679	8741.5283
756.87	8481.02953
757.062	8357.85297
757.253	8345.53149
757.445	8501.55225
757.636	8382.49384
757.827	8587.72696
758.019	8616.44449
758.21	8833.75947
758.401	8491.29113
758.593	8671.81795
758.784	8370.17376
758.975	8686.17183
759.167	8388.65362
759.358	8659.51391
759.549	8597.98364
759.74	8419.44992
759.932	8279.80507
760.123	8304.45483
760.314	8376.33388
760.505	8316.77865
760.696	7985.84194
760.888	8269.53351
761.079	8029.03712
761.27	8349.63873
761.461	8357.85297
761.652	8458.45234
761.843	8275.69651
762.034	8386.60038
762.225	8193.50861
762.416	8481.02953
762.607	8283.91356
762.798	8331.15555
762.989	8308.56284
763.18	8439.97837
763.371	8088.6729
763.562	8327.04796
763.753	8133.90253
763.944	8337.31678
764.135	8152.40276
764.326	8368.12034
764.517	7948.81034
764.708	8107.1771
764.899	7806.7941
765.089	8031.09381
765.28	7850.02687
765.471	7845.90986
765.662	7817.08845
765.853	7901.48252
766.043	7761.49278
766.234	8041.37695
766.425	7819.14726
766.615	7975.55605
766.806	8022.86693
766.997	7763.55215
767.187	7802.67622
767.378	7959.09756
767.569	7689.40156
767.759	8160.62457
767.95	7915.88779
768.141	7977.61327
768.331	7936.465
768.522	7913.82996
768.712	7784.14471
768.903	7858.26064
769.093	7823.26481
769.284	7786.20385
769.474	7790.32207
769.665	7625.52775
769.855	7555.44909
770.046	7759.43339
770.236	7559.57204
770.426	7771.78942
770.617	7757.37397
770.807	8051.65959
770.998	7790.32207
771.188	7909.71423
771.378	7761.49278
771.569	7942.63776
771.759	7413.15431
771.949	7654.37651
772.139	7452.34719
772.33	7545.14132
772.52	7635.83135
772.71	7880.90181
772.9	7536.89471
773.09	7650.25551
773.281	7959.09756
773.471	7609.04087
773.661	7687.34144
773.851	7404.90218
774.041	7392.52334
774.231	7505.9669
774.421	7460.59733
774.611	7417.28025
774.802	7188.15851
774.992	7190.22389
775.182	6958.76366
775.372	7097.26018
775.562	7314.10572
775.752	7559.57204
775.942	7330.61732
776.131	7345.06381
776.321	7072.46224
776.511	7460.59733
776.701	7250.11002
776.891	7163.37233
777.081	7014.58782
777.271	7305.8494
777.461	7264.56251
777.651	7192.28923
777.84	7322.3617
778.03	7223.26681
778.22	7016.65507
778.41	7250.11002
778.599	7084.86161
778.789	7130.31911
778.979	7349.19119
779.169	7206.74606
779.358	7266.62706
779.548	7198.48515
779.738	7353.31847
779.927	7299.65693
780.117	7045.59416
780.307	7274.88506
780.496	7159.24099
780.686	7057.99528
780.875	6894.64895
781.065	7031.12516
781.254	6660.75535
781.444	7000.11647
781.633	6890.51177
781.823	7130.31911
782.012	6967.03494
782.202	7243.91576
782.391	6919.47013
782.581	7002.18387
782.77	6816.027
782.96	6993.91412
783.149	6787.05273
783.338	6969.1027
783.528	6834.65095
783.717	6900.85455
783.906	6822.23519
784.096	7082.79511
784.285	6776.70369
784.474	7018.72229
784.663	7243.91576
784.853	6811.88809
785.042	6851.20403
785.231	7016.65507
785.42	6948.42405
785.61	6938.08387
785.799	6613.11284
785.988	6677.32381
786.177	6586.17907
786.366	6540.58995
786.555	6691.82
786.744	6588.25104
786.933	6642.11408
787.122	6478.4049
787.312	6613.11284
787.501	6691.82
787.69	6816.027
787.879	6907.05995
788.068	6691.82
788.257	6658.68419
788.445	6343.59887
788.634	6633.82848
788.823	6561.31366
789.012	6762.21408
789.201	6185.8544
789.39	6395.45899
789.579	6387.16235
789.768	6472.18525
789.957	6428.64182
790.145	6550.9521
790.334	6555.09679
790.523	6536.44493
790.712	6459.74532
790.9	6447.30455
791.089	6279.27206
791.278	6260.59232
791.467	6204.54173
791.655	6318.70083
791.844	6046.67781
792.033	6337.37468
792.221	6092.38922
792.41	6212.8466
792.599	6071.61272
792.787	6310.40074
792.976	6003.03356
793.164	6219.075
793.353	6102.77659
793.541	6119.39516
793.73	6152.62779
793.918	6385.08813
794.107	5882.43829
794.295	6318.70083
794.484	6343.59887
794.672	6364.34467
794.861	6198.31283
795.049	6138.08925
795.238	6121.47238
795.426	6233.60713
795.614	5817.94967
795.803	6252.28961
795.991	5990.56186
796.179	6144.32019
796.368	5994.71919
796.556	6181.7014
796.744	6069.53494
796.932	6148.47404
797.121	5924.03183
797.309	6351.89747
797.497	6148.47404
797.685	6237.75896
797.874	6152.62779
798.062	6194.16011
798.25	6077.84592
798.438	6248.13811
798.626	6038.36542
798.814	6063.30146
799.002	6061.22358
799.19	6121.47238
799.378	5872.03844
799.566	5996.79781
799.755	5740.94968
799.943	6123.54957
800.131	6138.08925
800.318	6127.70388
800.506	5861.63799
800.694	5807.54615
800.882	5836.67451
801.07	6077.84592
801.258	6017.58279
801.446	5957.29986
801.634	5763.84494
801.822	5980.16813
802.01	5795.06115
802.197	6013.42599
802.385	5880.35837
802.573	6086.15652
802.761	5921.95238
802.949	5928.19066
803.136	5878.27842
803.324	5988.48316
803.512	5828.35259
803.699	5919.8729
803.887	5857.47765
804.075	5921.95238
804.262	5905.31591
804.45	6069.53494
804.638	5869.95839
804.825	5980.16813
805.013	5824.19149
805.201	6023.81783
805.388	5890.75776
805.576	5905.31591
805.763	6052.91185
805.951	6013.42599
806.138	5971.85273
806.326	6185.8544
806.513	5878.27842
806.701	5971.85273
806.888	5961.45794
807.075	6030.05265
807.263	5628.51333
807.45	5911.55476
807.638	5978.08932
807.825	6121.47238
808.012	5907.39555
808.2	6144.32019
808.387	6048.75585
808.574	6148.47404
808.761	5840.83532
808.949	6000.955
809.136	5963.53695
809.323	5959.37891
809.51	6102.77659
809.698	6119.39516
809.885	5915.71388
810.072	5953.14169
810.259	6071.61272
810.446	6059.14569
810.633	6104.854
810.82	6210.77042
811.008	5969.77382
811.195	6082.00126
811.382	6032.13088
811.569	6048.75585
811.756	6015.5044
811.943	6067.45714
812.13	5886.59807
812.317	6243.98652
812.504	5988.48316
812.691	6264.74354
812.878	6086.15652
813.064	6119.39516
813.251	6073.69047
813.438	6165.08847
813.625	5861.63799
813.812	6077.84592
813.999	5896.9971
814.186	6173.39512
814.372	5967.69489
814.559	6102.77659
814.746	5911.55476
814.933	5982.24693
815.12	5853.31721
815.306	5882.43829
815.493	5921.95238
815.68	6181.7014
815.866	5878.27842
816.053	6129.781
816.24	5801.30376
816.426	5836.67451
816.613	5778.41317
816.799	5988.48316
816.986	5751.35697
817.173	5932.3494
817.359	5690.98646
817.546	6059.14569
817.732	5595.18565
817.919	5861.63799
818.105	5930.27004
818.292	5878.27842
818.478	5588.93604
818.665	6003.03356
818.851	5915.71388
819.037	6160.935
819.224	5961.45794
819.41	5907.39555
819.597	5795.06115
819.783	5890.75776
819.969	5911.55476
820.156	5907.39555
820.342	5757.60106
820.528	6152.62779
820.714	5790.8993
820.901	6009.26908
821.087	5847.07637
821.273	6106.93138
821.459	5830.43311
821.646	6019.66116
821.832	5955.22079
822.018	6177.54831
822.204	5570.18592
822.39	5832.5136
822.576	5611.85024
822.762	5795.06115
822.948	5628.51333
823.134	5649.34007
823.32	5495.16639
823.507	5653.50513
823.693	5580.60289
823.879	5803.38458
824.065	5705.56047
824.25	5855.39744
824.436	5638.927
824.622	5713.88796
824.808	5593.10247
824.994	5801.30376
825.18	5695.15058
825.366	5686.82225
825.552	5361.72306
825.738	5844.99605
825.923	5655.58763
826.109	5896.9971
826.295	5472.23767
826.481	5570.18592
826.667	5570.18592
826.852	5743.03118
827.038	5511.84004
827.224	5605.6012
827.409	5649.34007
827.595	5638.927
827.781	5413.86082
827.966	5570.18592
828.152	5507.67177
828.338	5743.03118
828.523	5363.80885
828.709	5420.11636
828.894	5447.22128
829.08	5486.82901
829.266	5144.67293
829.451	5411.77559
829.637	5048.58963
829.822	5434.71181
830.008	5272.01183
830.193	5415.94602
830.378	5453.47569
830.564	5574.35278
830.749	5411.77559
830.935	5616.01616
831.12	5240.70704
831.305	5647.2575
831.491	5228.18365
831.676	5488.91339
831.861	5102.90362
832.047	5330.43336
832.232	5086.19329
832.417	5272.01183
832.602	5107.08097
832.788	5370.06608
832.973	5069.48148
833.158	5253.22959
833.343	5046.50032
833.528	5338.7778
833.714	5075.74858
833.899	5238.61986
834.084	5127.96632
834.269	5440.96665
834.454	4902.28208
834.639	5157.20192
834.824	4902.28208
835.009	4990.08016
835.194	4776.78621
835.379	5161.37806
835.564	4835.36116
835.749	5286.61893
835.934	4910.64555
836.119	5144.67293
836.304	5002.61942
836.489	5115.43539
836.674	4709.82162
836.859	5123.78944
837.044	4900.19116
837.228	5146.76116
837.413	5063.21417
837.598	5286.61893
837.783	4904.37298
837.968	5194.78384
838.152	5023.51636
838.337	4837.4528
838.522	4772.6016
838.707	4847.91062
838.891	4586.29522
839.076	4927.37138
839.261	4661.67655
839.445	4954.54772
839.63	4686.7972
839.815	4983.81021
839.999	4749.58464
840.184	4896.00924
840.368	4737.02878
840.553	4898.10021
840.737	4667.95701
840.922	4814.44358
841.106	4751.6772
841.291	4755.86226
841.475	4554.8778
841.66	4826.9944
841.844	4473.16916
842.029	4686.7972
842.213	4580.01214
842.397	4563.25627
842.582	4504.59953
842.766	4701.44942
842.951	4374.65534
843.135	4638.64644
843.319	4494.12329
843.504	4510.88501
843.688	4202.66563
843.872	4567.44537
844.056	4267.70309
844.241	4504.59953
844.425	4485.7419
844.609	4592.5781
844.793	4429.15832
844.977	4617.70763
845.161	4261.41004
845.346	4173.28719
845.53	4208.96047
845.714	4315.9434
845.898	4139.70676
846.082	4485.7419
846.266	4265.60543
846.45	4441.73383
846.634	4223.64769
846.818	4391.42705
847.002	4343.20462
847.186	4368.36559
847.37	4229.9419
847.554	4441.73383
847.738	4118.71626
847.922	4359.97895
848.106	4303.36007
848.29	4303.36007
848.473	4200.56731
848.657	4133.40983
848.841	4026.33333
849.025	4198.46896
849.209	4028.43339
849.392	4324.33186
849.576	4005.33163
849.76	4135.50883
849.944	3786.79399
850.127	4294.97075
850.311	3742.64015
850.495	4282.38612
850.678	4097.72367
850.862	4374.65534
851.046	3854.05938
851.229	4215.25512
851.413	4024.23325
851.596	4156.49765
851.78	4066.23088
851.964	4269.80073
852.147	3988.52879
852.331	4194.27221
852.514	3912.8999
852.698	4024.23325
852.881	3753.15375
853.065	3971.72465
853.248	3626.95884
853.431	3744.74291
853.615	3656.41047
853.798	3872.97412
853.982	3629.06265
854.165	3891.88723
854.348	3786.79399
854.532	4024.23325
854.715	3839.34681
854.898	3984.32788
855.081	3708.99339
855.265	4055.73225
855.448	3719.50853
855.631	3740.53737
855.814	3408.06162
855.997	3730.02319
856.181	3559.62701
856.364	3803.61223
856.547	3555.41813
856.73	3685.85838
856.913	3551.20919
857.096	3761.56428
857.279	3435.4345
857.462	3620.6473
857.645	3504.90592
857.828	3500.69609
858.011	3620.6473
858.194	3538.5819
858.377	3403.85014
858.56	3357.51921
858.743	3231.11967
858.926	3568.04453
859.109	3368.04971
859.292	3517.53496
859.475	3713.1995
859.658	3496.48619
859.841	3534.37266
860.023	3605.9197
860.206	3323.81869
860.389	3467.01485
860.572	3273.25965
860.755	3589.08704
860.937	3167.89722
861.12	3547.00017
861.303	3210.04717
861.486	3296.43377
861.668	3045.62593
861.851	3235.33397
862.034	2995.01552
862.216	3201.61771
862.399	3039.30011
862.581	3140.49625
862.764	2944.3964
862.947	3382.79168
863.129	3129.95669
863.312	3195.29543
863.494	3007.66895
863.677	3241.65529
863.859	3047.7345
864.042	3195.29543
864.224	2849.46275
864.406	3094.1192
864.589	2879.00079
864.771	3222.69087
864.954	2834.69269
865.136	3041.40873
865.318	2868.45181
865.501	3089.90273
865.683	2822.0321
865.865	2995.01552
866.048	2952.83351
866.23	3020.32183
866.412	2893.76876
866.594	3161.57416
866.777	3054.06013
866.959	3075.14456
867.141	2957.05198
867.323	2965.48875
867.505	2809.371
867.687	2910.64557
867.869	2651.06655
868.052	2824.14223
868.234	2672.17804
868.416	2961.27039
868.598	2693.28827
868.78	2729.17268
868.962	2566.60818
869.144	2767.16379
869.326	2558.16128
869.508	2862.12225
869.69	2640.51033
869.872	2741.83686
870.054	2600.39386
870.236	2860.01237
870.417	2623.61973
870.599	2819.92195
870.781	2653.17775
870.963	2710.17552
871.145	2796.70941
871.327	2988.6886
871.508	2602.50537
871.69	2885.33
871.872	2813.59142
872.054	3032.97415
872.235	2729.17268
872.417	2754.50057
872.599	2672.17804
872.78	2720.72963
872.962	2691.1773
873.144	2889.54941
873.325	2568.71987
873.507	2752.38998
873.689	2591.94773
873.87	2760.83224
874.052	2499.02776
874.233	2800.93
874.415	2640.51033
874.596	2756.61114
874.778	2425.09848
874.959	2454.6718
875.141	2399.74826
875.322	2589.83617
875.503	2488.46727
875.685	2686.95534
875.866	2560.27302
876.048	2663.7336
876.229	2534.93133
876.41	2686.95534
876.592	2501.13983
876.773	2682.73332
876.954	2566.60818
877.136	2653.17775
877.317	2414.53608
877.498	2644.73285
877.679	2399.74826
877.86	2585.613
878.042	2465.23319
878.223	2684.84433
878.404	2490.57939
878.585	2701.732
878.766	2471.56989
878.947	2532.81945
879.128	2439.88541
879.309	2710.17552
879.49	2600.39386
879.672	2718.61883
879.853	2446.2225
880.034	2756.61114
880.215	2437.77302
880.396	2807.26077
880.576	2608.8398
880.757	2805.15053
880.938	2518.03595
881.119	2727.06194
881.3	2689.06633
881.481	2891.65909
881.662	2929.63087
881.843	2889.54941
882.023	2779.82652
882.204	2767.16379
882.385	2750.27939
882.566	2604.61686
882.747	2691.1773
882.927	2754.50057
883.108	2651.06655
883.289	2684.84433
883.469	2670.06695
883.65	2720.72963
883.831	2458.89639
884.011	2739.7262
884.192	2507.47596
884.373	2893.76876
884.553	2644.73285
884.734	2948.61498
884.914	2693.28827
885.095	2739.7262
885.275	2570.83155
885.456	2718.61883
885.636	2644.73285
885.817	2893.76876
885.997	2720.72963
886.178	2834.69269
886.358	2496.91569
886.538	2792.48877
886.719	2613.0627
886.899	2879.00079
887.08	2581.38979
887.26	2872.67144
887.44	2583.5014
887.621	2655.28895
887.801	2515.92397
887.981	2708.06466
888.161	2657.40013
888.342	2708.06466
888.522	2699.62109
888.702	2703.8429
888.882	2420.87355
889.062	2727.06194
889.242	2577.16653
889.423	2754.50057
889.603	2589.83617
889.783	2828.36246
889.963	2488.46727
890.143	2819.92195
890.323	2634.17645
890.503	2712.28637
890.683	2695.39922
890.863	2881.11054
891.043	2659.5113
891.223	2826.25235
891.403	2499.02776
891.583	2733.39413
891.763	2530.70756
891.943	2623.61973
892.122	2653.17775
892.302	2872.67144
892.482	2667.95585
892.662	2739.7262
892.842	2623.61973
893.022	2872.67144
893.201	2781.93693
893.381	2733.39413
893.561	2741.83686
893.741	2779.82652
893.92	2651.06655
894.1	2731.28341
894.28	2425.09848
894.459	2627.84245
894.639	2158.85127
894.819	2437.77302
894.998	2382.84728
895.178	2484.24299
895.357	2406.08596
895.537	2566.60818
895.716	2363.8329
895.896	2701.732
896.075	2427.21093
896.255	2471.56989
896.434	2363.8329
896.614	2568.71987
896.793	2291.99353
896.973	2425.09848
897.152	2285.65422
897.331	2380.73462
897.511	2461.00867
897.69	2589.83617
897.87	2334.25335
898.049	2349.04337
898.228	2336.36624
898.407	2342.70484
898.587	2186.32787
898.766	2363.8329
898.945	2125.03203
899.124	2289.88043
899.304	2156.73762
899.483	2133.48703
899.662	1996.07871
899.841	2065.84363
900.02	1993.96451
900.199	2074.29947
900.378	1879.78869
900.557	2196.89542
900.737	1841.72656
900.916	2179.98724
901.095	2048.93161
901.274	1977.05066
901.453	1985.50763
901.632	2040.47543
901.811	1879.78869
901.989	1938.99308
902.168	1867.10149
902.347	2188.4414
902.526	1742.33524
902.705	1958.02211
902.884	1881.90321
903.063	1913.6203
903.242	1862.87239
903.42	2078.52735
903.599	1782.51581
903.778	1848.07036
903.957	1900.93361
904.135	1924.19239
904.314	1687.34924
904.493	1858.64326
904.672	1790.9747
904.85	1719.07221
905.029	1678.88967
905.207	1676.77477
905.386	1473.73511
905.565	1676.77477
905.743	1642.93601
905.922	1617.55653
906.1	1338.37249
906.279	1748.67963
906.457	1401.8234
906.636	1685.23436
906.814	1615.44155
906.993	1596.40672
907.171	1304.53251
907.35	1598.52171
907.528	1327.79745
907.707	1482.19531
907.885	1329.91245
908.063	1458.92975
908.242	1203.0161
908.42	1370.09782
908.598	1245.31384
908.777	1291.84265
908.955	1169.17887
909.133	1329.91245
909.311	1171.29367
909.49	1262.23327
909.668	1012.69656
909.846	1241.08402
910.024	1245.31384
910.202	1332.02746
910.38	1194.55671
910.559	1410.28358
910.737	1232.62439
910.915	1571.02672
911.093	1253.77354
911.271	1397.59331
911.449	1247.42876
911.627	1338.37249
911.805	1338.37249
911.983	1338.37249
912.161	1232.62439
912.339	1467.38996
912.517	1258.0034
912.695	1285.49774
912.872	1448.35449
913.05	1575.25674
913.228	1338.37249
913.406	1399.70835
913.584	1422.97387
913.762	1340.4875
913.939	1454.69964
914.117	1431.43407
914.295	1255.88846
914.473	1427.20397
914.65	1224.16482
914.828	1401.8234
915.006	1228.3946
915.184	1359.52268
915.361	1035.95561
915.539	1298.18757
915.716	1154.37539
915.894	1281.26782
916.072	1158.60493
916.249	1160.71971
916.427	1071.90279
916.604	1298.18757
916.782	1112.08086
916.959	1241.08402
917.137	1186.09737
917.314	1332.02746
917.492	1023.26877
917.669	1044.41363
917.847	1046.52815
918.024	1126.88374
918.201	926.01066
918.379	1190.32703
918.556	1012.69656
918.733	1164.94928
918.911	841.45119
919.088	1120.53962
919.265	1078.24658
919.442	1050.7572
919.62	926.01066
919.797	1128.99846
919.974	978.86656
920.151	1215.70529
920.328	1042.29912
920.506	1179.7529
920.683	1038.07011
920.86	978.86656
921.037	898.52741
921.214	1038.07011
921.391	917.55413
921.568	1101.50751
921.745	932.35313
921.922	1090.93428
922.099	1000.01012
922.276	1033.84112
922.453	871.0455
922.63	898.52741
922.807	830.8822
922.984	957.72367
923.161	765.35969
923.338	1019.03987
923.514	714.63918
923.691	832.99598
923.868	852.02039
924.045	926.01066
924.222	835.10977
924.399	805.51757
924.575	835.10977
924.752	913.32592
924.929	868.93157
925.105	911.21182
925.282	718.86566
925.459	970.40932
925.635	716.75241
925.812	811.8586
925.989	720.97891
926.165	813.9723
926.342	666.03791
926.518	733.65866
926.695	663.92495
926.871	704.07318
927.048	606.87955
927.224	723.09218
927.401	492.81728
927.577	649.13455
927.754	674.48987
927.93	678.71592
928.107	628.00643
928.283	701.96001
928.459	503.37689
928.636	716.75241
928.812	640.68315
928.988	653.36032
929.165	577.30405
929.341	632.23195
929.517	547.73116
929.693	663.92495
929.87	467.47573
930.046	545.61891
930.222	537.17005
930.398	672.37686
930.574	551.95569
930.751	518.16095
930.927	606.87955
931.103	539.28225
931.279	526.6093
931.455	611.10482
931.631	478.03445
931.807	568.85439
931.983	505.48886
932.159	528.72142
932.335	459.02903
932.511	393.57558
932.687	416.79924
932.863	492.81728
933.039	421.02194
933.215	486.48169
933.391	418.91058
933.566	402.02032
933.742	425.2447
933.918	315.47458
934.094	315.47458
934.27	383.02003
934.445	214.19127
934.621	340.80204
934.797	326.02738
934.973	345.02353
935.148	404.13155
935.324	342.91278
935.5	193.0962
935.675	260.60738
935.851	292.26001
936.027	374.57589
936.202	228.95901
936.378	216.30089
936.553	222.62986
936.729	218.41053
936.904	241.61784
937.08	214.19127
937.255	176.22159
937.431	207.86254
937.606	239.50798
937.782	199.42451
937.957	150.91217
938.133	70.78603
938.308	174.11236
938.483	153.02117
938.659	79.21886
938.834	112.95374
939.009	178.33085
939.185	186.76807
939.36	193.0962
939.535	163.5665
939.71	20.19678
939.886	163.5665
940.061	104.51949
940.236	108.73657
940.411	121.38835
940.586	205.753
940.761	79.21886
940.937	180.44012
941.112	56.02946
941.287	5.44413
941.462	64.46165
941.637	148.80318
941.812	39.16618
941.987	125.60578
942.162	100.3025
942.337	104.51949
942.512	157.23924
942.687	64.46165
942.862	45.48974
943.037	64.46165
943.212	98.19403
943.386	127.71452
943.561	70.78603
943.736	66.56975
943.911	85.54372
944.086	100.3025
944.26	39.16618
944.435	106.62802
944.61	117.171
944.785	56.02946
944.959	62.35357
945.134	79.21886
945.309	70.78603
945.483	70.78603
945.658	62.35357
945.833	75.0024
946.007	146.69422
946.182	79.21886
946.357	-21.95051
946.531	32.84284
946.706	62.35357
946.88	89.7604
947.055	15.98162
947.229	79.21886
947.404	49.70556
947.578	131.93208
947.752	121.38835
947.927	123.49705
948.101	66.56975
948.276	127.71452
948.45	28.62739
948.624	96.08559
948.799	93.97717
948.973	104.51949
949.147	89.7604
949.321	56.02946
949.496	112.95374
949.67	77.11062
949.844	104.51949
950.018	125.60578
950.193	62.35357
950.367	-0.87807
950.541	131.93208
950.715	51.8135
950.889	89.7604
951.063	68.67788
951.237	53.92147
951.411	62.35357
951.585	104.51949
951.759	70.78603
951.933	64.46165
952.107	129.82329
952.281	56.02946
952.455	134.0409
952.629	106.62802
952.803	93.97717
952.977	37.05838
953.151	104.51949
953.325	24.41204
953.499	159.34831
953.672	163.5665
953.846	110.84515
954.02	115.06236
954.194	98.19403
954.368	142.47636
954.541	117.171
954.715	129.82329
954.889	129.82329
955.062	37.05838
955.236	176.22159
955.41	131.93208
955.583	129.82329
955.757	100.3025
955.93	209.9721
956.104	136.14973
956.278	91.86877
956.451	3.33671
956.625	83.43541
956.798	85.54372
956.972	89.7604
957.145	49.70556
957.319	98.19403
957.492	83.43541
957.665	79.21886
957.839	49.70556
958.012	104.51949
958.185	20.19678
958.359	37.05838
958.532	81.32712
958.705	104.51949
958.879	91.86877
959.052	89.7604
959.225	138.25859
959.398	129.82329
959.572	32.84284
959.745	115.06236
959.918	112.95374
960.091	140.36746
960.264	45.48974
960.438	125.60578
960.611	102.41098
960.784	112.95374
960.957	60.24551
961.13	96.08559
961.303	20.19678
961.476	157.23924
961.649	45.48974
961.822	56.02946
961.995	60.24551
962.168	98.19403
962.341	53.92147
962.514	79.21886
962.686	89.7604
962.859	87.65205
963.032	96.08559
963.205	161.45739
963.378	87.65205
963.551	81.32712
963.723	75.0024
963.896	140.36746
964.069	49.70556
964.242	163.5665
964.414	53.92147
964.587	64.46165
964.76	79.21886
964.932	91.86877
965.105	110.84515
965.278	64.46165
965.45	-13.52183
965.623	53.92147
965.795	72.8942
965.968	89.7604
966.14	129.82329
966.313	131.93208
966.485	100.3025
966.658	129.82329
966.83	112.95374
967.003	22.3044
967.175	163.5665
967.348	98.19403
967.52	100.3025
967.692	49.70556
967.865	81.32712
968.037	75.0024
968.209	66.56975
968.382	98.19403
968.554	-21.95051
968.726	58.13747
968.898	79.21886
969.071	53.92147
969.243	102.41098
969.415	96.08559
969.587	45.48974
969.759	87.65205
969.932	75.0024
970.104	89.7604
970.276	62.35357
970.448	87.65205
970.62	62.35357
970.792	62.35357
970.964	41.27401
971.136	28.62739
971.308	5.44413
971.48	53.92147
971.652	87.65205
971.824	98.19403
971.996	37.05838
972.168	28.62739
972.339	117.171
972.511	129.82329
972.683	98.19403
972.855	28.62739
973.027	83.43541
973.199	20.19678
973.37	75.0024
973.542	41.27401
973.714	96.08559
973.886	64.46165
974.057	75.0024
974.229	37.05838
974.401	43.38186
974.572	37.05838
974.744	108.73657
974.915	45.48974
975.087	157.23924
975.259	83.43541
975.43	47.59764
975.602	112.95374
975.773	85.54372
975.945	-21.95051
976.116	-26.16471
976.288	32.84284
976.459	81.32712
976.63	138.25859
976.802	-30.3788
976.973	53.92147
977.145	45.48974
977.316	22.3044
977.487	163.5665
977.659	117.171
977.83	70.78603
978.001	119.27966
978.172	134.0409
978.344	39.16618
978.515	3.33671
978.686	62.35357
978.857	45.48974
979.028	-13.52183
979.2	104.51949
979.371	53.92147
979.542	89.7604
979.713	87.65205
979.884	9.65906
980.055	32.84284
980.226	100.3025
980.397	45.48974
980.568	75.0024
980.739	28.62739
980.91	70.78603
981.081	32.84284
981.252	37.05838
981.423	39.16618
981.594	87.65205
981.765	24.41204
981.936	-7.20006
982.106	37.05838
982.277	123.49705
982.448	70.78603
982.619	41.27401
982.79	62.35357
982.96	85.54372
983.131	45.48974
983.302	79.21886
983.472	24.41204
983.643	22.3044
983.814	87.65205
983.984	64.46165
984.155	58.13747
984.326	108.73657
984.496	62.35357
984.667	81.32712
984.837	28.62739
985.008	5.44413
985.178	-9.30734
985.349	13.87408
985.519	41.27401
985.69	146.69422
985.86	-0.87807
986.031	81.32712
986.201	102.41098
986.371	56.02946
986.542	1.22931
986.712	30.7351
986.882	56.02946
987.053	83.43541
987.223	45.48974
987.393	100.3025
987.563	30.7351
987.734	37.05838
987.904	56.02946
988.074	47.59764
988.244	-34.5928
988.414	-11.4146
988.585	-51.44779
988.755	79.21886
988.925	81.32712
989.095	18.08919
989.265	85.54372
989.435	-15.62904
989.605	7.55158
989.775	28.62739
989.945	39.16618
990.115	30.7351
990.285	45.48974
990.455	81.32712
990.625	93.97717
990.795	5.44413
990.965	121.38835
991.134	70.78603
991.304	-28.27177
991.474	3.33671
991.644	47.59764
991.814	45.48974
991.984	115.06236
992.153	-13.52183
992.323	32.84284
992.493	62.35357
992.662	37.05838
992.832	89.7604
993.002	24.41204
993.171	28.62739
993.341	11.76656
993.511	-9.30734
993.68	-15.62904
993.85	1.22931
994.019	11.76656
994.189	11.76656
994.358	39.16618
994.528	53.92147
994.697	34.9506
994.867	60.24551
995.036	22.3044
995.206	41.27401
995.375	115.06236
995.544	83.43541
995.714	-17.73622
995.883	47.59764
996.052	45.48974
996.222	26.51971
996.391	53.92147
996.56	49.70556
996.73	87.65205
996.899	24.41204
997.068	28.62739
997.237	-0.87807
997.406	-9.30734
997.576	45.48974
997.745	26.51971
997.914	64.46165
998.083	66.56975
998.252	-7.20006
998.421	-30.3788
998.59	87.65205
998.759	53.92147
998.928	49.70556
999.097	53.92147
999.266	-0.87807
999.435	-9.30734
999.604	45.48974
999.773	7.55158
999.942	24.41204
1000.111	-2.98542
1000.28	70.78603
1000.448	-36.69976
1000.617	-9.30734
1000.786	-15.62904
1000.955	-32.48582
1001.124	58.13747
1001.292	37.05838
1001.461	3.33671
1001.63	72.8942
1001.798	41.27401
1001.967	32.84284
1002.136	37.05838
1002.304	87.65205
1002.473	-28.27177
1002.642	64.46165
1002.81	83.43541
1002.979	41.27401
1003.147	56.02946
1003.316	22.3044
1003.484	15.98162
1003.653	77.11062
1003.821	79.21886
1003.99	62.35357
1004.158	18.08919
1004.327	22.3044
1004.495	37.05838
1004.663	47.59764
1004.832	28.62739
1005	-40.91361
1005.168	9.65906
1005.337	3.33671
1005.505	104.51949
1005.673	39.16618
1005.842	-2.98542
1006.01	13.87408
1006.178	43.38186
1006.346	37.05838
1006.514	28.62739
1006.683	3.33671
1006.851	41.27401
1007.019	62.35357
1007.187	-47.2342
1007.355	-19.84338
1007.523	30.7351
1007.691	56.02946
1007.859	68.67788
1008.027	125.60578
1008.195	47.59764
1008.363	28.62739
1008.531	15.98162
1008.699	45.48974
1008.867	-30.3788
1009.035	28.62739
1009.203	20.19678
1009.37	115.06236
1009.538	13.87408
1009.706	32.84284
1009.874	7.55158
1010.042	68.67788
1010.209	112.95374
1010.377	-34.5928
1010.545	7.55158
1010.713	-9.30734
1010.88	-17.73622
1011.048	-0.87807
1011.216	-13.52183
1011.383	75.0024
1011.551	1.22931
1011.718	22.3044
1011.886	-36.69976
1012.054	-0.87807
1012.221	37.05838
1012.389	37.05838
1012.556	5.44413
1012.724	83.43541
1012.891	68.67788
1013.058	30.7351
1013.226	-0.87807
1013.393	64.46165
1013.561	34.9506
1013.728	3.33671
1013.895	-19.84338
1014.063	30.7351
1014.23	45.48974
1014.397	49.70556
1014.565	129.82329
1014.732	62.35357
1014.899	5.44413
1015.066	32.84284
1015.233	-13.52183
1015.401	87.65205
1015.568	37.05838
1015.735	-11.4146
1015.902	37.05838
1016.069	37.05838
1016.236	11.76656
1016.403	26.51971
1016.57	66.56975
1016.737	-13.52183
1016.904	26.51971
1017.071	49.70556
1017.238	7.55158
1017.405	-7.20006
1017.572	62.35357
1017.739	39.16618
1017.906	-11.4146
1018.073	102.41098
1018.24	9.65906
1018.407	96.08559
1018.573	-13.52183
1018.74	70.78603
1018.907	45.48974
1019.074	79.21886
1019.241	24.41204
1019.407	9.65906
1019.574	13.87408
1019.741	3.33671
1019.907	5.44413
1020.074	-15.62904
1020.241	43.38186
1020.407	34.9506
1020.574	7.55158
1020.74	9.65906
1020.907	7.55158
1021.073	5.44413
1021.24	22.3044
1021.406	49.70556
1021.573	3.33671
1021.739	7.55158
1021.906	11.76656
1022.072	11.76656
1022.239	22.3044
1022.405	49.70556
1022.571	56.02946
1022.738	9.65906
1022.904	39.16618
1023.07	20.19678
1023.237	32.84284
1023.403	87.65205
1023.569	47.59764
1023.735	-7.20006
1023.902	-36.69976
1024.068	-30.3788
1024.234	26.51971
1024.4	-28.27177
1024.566	-38.8067
1024.732	-17.73622
1024.898	49.70556
1025.065	28.62739
1025.231	-5.09275
1025.397	45.48974
1025.563	26.51971
1025.729	47.59764
1025.895	7.55158
1026.061	62.35357
1026.227	37.05838
1026.392	53.92147
1026.558	3.33671
1026.724	64.46165
1026.89	-5.09275
1027.056	20.19678
1027.222	24.41204
1027.388	-13.52183
1027.553	81.32712
1027.719	-32.48582
1027.885	11.76656
1028.051	39.16618
1028.216	-55.66129
1028.382	51.8135
1028.548	-0.87807
1028.713	47.59764
1028.879	-38.8067
1029.045	11.76656
1029.21	11.76656
1029.376	22.3044
1029.541	41.27401
1029.707	-17.73622
1029.873	-34.5928
1030.038	32.84284
1030.204	-15.62904
1030.369	37.05838
1030.534	56.02946
1030.7	53.92147
1030.865	-11.4146
1031.031	66.56975
1031.196	7.55158
1031.361	39.16618
1031.527	51.8135
1031.692	100.3025
1031.857	-30.3788
1032.023	62.35357
1032.188	-51.44779
1032.353	28.62739
1032.518	37.05838
1032.684	5.44413
1032.849	-26.16471
1033.014	53.92147
1033.179	-45.12736
1033.344	70.78603
1033.509	87.65205
1033.674	79.21886
1033.839	37.05838
1034.004	96.08559
1034.17	32.84284
1034.335	41.27401
1034.5	58.13747
1034.664	22.3044
1034.829	-21.95051
1034.994	37.05838
1035.159	28.62739
1035.324	34.9506
1035.489	32.84284
1035.654	24.41204
1035.819	53.92147
1035.984	45.48974
1036.148	75.0024
1036.313	-19.84338
1036.478	45.48974
1036.643	-5.09275
1036.807	-24.05762
1036.972	24.41204
1037.137	56.02946
1037.301	98.19403
1037.466	79.21886
1037.631	13.87408
1037.795	34.9506
1037.96	26.51971
1038.124	37.05838
1038.289	11.76656
1038.454	15.98162
1038.618	13.87408
1038.783	-43.0205
1038.947	-9.30734
1039.111	-21.95051
1039.276	45.48974
1039.44	22.3044
1039.605	79.21886
1039.769	-28.27177
1039.933	-19.84338
1040.098	22.3044
1040.262	-11.4146
1040.426	20.19678
1040.591	28.62739
1040.755	-17.73622
1040.919	47.59764
1041.083	-45.12736
1041.248	47.59764
1041.412	-13.52183
1041.576	-0.87807
1041.74	15.98162
1041.904	9.65906
1042.068	37.05838
1042.232	-9.30734
1042.397	91.86877
1042.561	20.19678
1042.725	-2.98542
1042.889	-45.12736
1043.053	-55.66129
1043.217	-5.09275
1043.381	-24.05762
1043.544	112.95374
1043.708	-11.4146
1043.872	-47.2342
1044.036	-24.05762
1044.2	-15.62904
1044.364	26.51971
1044.528	83.43541
1044.691	20.19678
1044.855	20.19678
1045.019	64.46165
1045.183	-5.09275
1045.346	93.97717
1045.51	37.05838
1045.674	13.87408
1045.837	-9.30734
1046.001	-7.20006
1046.165	3.33671
1046.328	-11.4146
1046.492	64.46165
1046.655	-34.5928
1046.819	13.87408
1046.983	43.38186
1047.146	-38.8067
1047.31	24.41204
1047.473	32.84284
1047.636	13.87408
1047.8	5.44413
1047.963	-53.55456
1048.127	28.62739
1048.29	11.76656
